Canal,Energía (keV),Cuentas
1,12.49,3
2,12.97,0
3,13.46,4
4,13.94,9
5,14.42,3
6,14.9,1
7,15.38,5
8,15.87,13
9,16.35,31
10,16.83,49
11,17.31,61
12,17.79,160
13,18.27,316
14,18.76,467
15,19.24,735
16,19.72,1049
17,20.2,1557
18,20.68,2038
19,21.17,2152
20,21.65,1769
21,22.13,1090
22,22.61,607
23,23.09,461
24,23.58,356
25,24.06,312
26,24.54,272
27,25.02,228
28,25.5,210
29,25.99,219
30,26.47,171
31,26.95,172
32,27.43,177
33,27.91,188
34,28.39,160
35,28.88,179
36,29.36,146
37,29.84,158
38,30.32,147
39,30.8,161
40,31.29,137
41,31.77,138
42,32.25,157
43,32.73,143
44,33.21,136
45,33.7,170
46,34.18,173
47,34.66,144
48,35.14,154
49,35.62,161
50,36.11,161
51,36.59,167
52,37.07,151
53,37.55,165
54,38.03,159
55,38.51,175
56,39.0,173
57,39.48,148
58,39.96,150
59,40.44,161
60,40.92,175
61,41.41,164
62,41.89,173
63,42.37,194
64,42.85,158
65,43.33,156
66,43.82,169
67,44.3,143
68,44.78,190
69,45.26,161
70,45.74,177
71,46.22,236
72,46.71,256
73,47.19,191
74,47.67,190
75,48.15,171
76,48.63,151
77,49.12,159
78,49.6,173
79,50.08,172
80,50.56,163
81,51.04,177
82,51.53,183
83,52.01,188
84,52.49,198
85,52.97,203
86,53.45,222
87,53.94,179
88,54.42,211
89,54.9,172
90,55.38,173
91,55.86,187
92,56.34,169
93,56.83,149
94,57.31,178
95,57.79,160
96,58.27,176
97,58.75,193
98,59.24,188
99,59.72,214
100,60.2,177
101,60.68,189
102,61.16,190
103,61.65,180
104,62.13,237
105,62.61,360
106,63.09,503
107,63.57,510
108,64.06,284
109,64.54,188
110,65.02,181
111,65.5,194
112,65.98,196
113,66.46,220
114,66.95,198
115,67.43,207
116,67.91,169
117,68.39,199
118,68.87,200
119,69.36,198
120,69.84,185
121,70.32,236
122,70.8,194
123,71.28,208
124,71.77,185
125,72.25,220
126,72.73,210
127,73.21,219
128,73.69,211
129,74.18,256
130,74.66,254
131,75.14,249
132,75.62,236
133,76.1,220
134,76.58,259
135,77.07,263
136,77.55,242
137,78.03,209
138,78.51,187
139,78.99,193
140,79.48,213
141,79.96,225
142,80.44,183
143,80.92,224
144,81.4,186
145,81.89,197
146,82.37,176
147,82.85,187
148,83.33,244
149,83.81,202
150,84.3,260
151,84.78,224
152,85.26,208
153,85.74,209
154,86.22,202
155,86.7,226
156,87.19,259
157,87.67,244
158,88.15,212
159,88.63,215
160,89.11,191
161,89.6,245
162,90.08,243
163,90.56,195
164,91.04,263
165,91.52,298
166,92.01,537
167,92.49,657
168,92.97,519
169,93.45,313
170,93.93,240
171,94.41,254
172,94.9,213
173,95.38,224
174,95.86,180
175,96.34,220
176,96.82,235
177,97.31,212
178,97.79,212
179,98.27,236
180,98.75,236
181,99.23,234
182,99.72,222
183,100.2,220
184,100.68,200
185,101.16,207
186,101.64,223
187,102.13,231
188,102.61,245
189,103.09,232
190,103.57,213
191,104.05,232
192,104.53,209
193,105.02,245
194,105.5,203
195,105.98,215
196,106.46,213
197,106.94,245
198,107.43,231
199,107.91,245
200,108.39,245
201,108.87,231
202,109.35,229
203,109.84,219
204,110.32,191
205,110.8,213
206,111.28,211
207,111.76,222
208,112.25,269
209,112.73,242
210,113.21,253
211,113.69,208
212,114.17,227
213,114.65,227
214,115.14,236
215,115.62,235
216,116.1,230
217,116.58,215
218,117.06,213
219,117.55,208
220,118.03,216
221,118.51,244
222,118.99,196
223,119.47,226
224,119.96,200
225,120.44,205
226,120.92,230
227,121.4,232
228,121.88,221
229,122.37,231
230,122.85,230
231,123.33,212
232,123.81,234
233,124.29,200
234,124.77,221
235,125.26,248
236,125.74,224
237,126.22,218
238,126.7,202
239,127.18,230
240,127.67,214
241,128.15,215
242,128.63,211
243,129.11,208
244,129.59,219
245,130.08,198
246,130.56,207
247,131.04,243
248,131.52,194
249,132.0,214
250,132.49,196
251,132.97,193
252,133.45,246
253,133.93,195
254,134.41,223
255,134.89,189
256,135.38,221
257,135.86,185
258,136.34,201
259,136.82,203
260,137.3,205
261,137.79,216
262,138.27,215
263,138.75,201
264,139.23,218
265,139.71,230
266,140.2,212
267,140.68,218
268,141.16,201
269,141.64,204
270,142.12,193
271,142.6,212
272,143.09,241
273,143.57,277
274,144.05,223
275,144.53,206
276,145.01,199
277,145.5,186
278,145.98,200
279,146.46,179
280,146.94,186
281,147.42,206
282,147.91,213
283,148.39,193
284,148.87,196
285,149.35,207
286,149.83,204
287,150.32,214
288,150.8,192
289,151.28,191
290,151.76,220
291,152.24,217
292,152.72,196
293,153.21,194
294,153.69,182
295,154.17,201
296,154.65,183
297,155.13,200
298,155.62,180
299,156.1,186
300,156.58,181
301,157.06,219
302,157.54,203
303,158.03,199
304,158.51,196
305,158.99,192
306,159.47,182
307,159.95,172
308,160.44,171
309,160.92,189
310,161.4,190
311,161.88,195
312,162.36,207
313,162.84,187
314,163.33,195
315,163.81,180
316,164.29,189
317,164.77,164
318,165.25,170
319,165.74,185
320,166.22,176
321,166.7,183
322,167.18,165
323,167.66,155
324,168.15,133
325,168.63,173
326,169.11,172
327,169.59,158
328,170.07,190
329,170.56,150
330,171.04,159
331,171.52,182
332,172.0,163
333,172.48,187
334,172.96,162
335,173.45,135
336,173.93,176
337,174.41,167
338,174.89,154
339,175.37,152
340,175.86,172
341,176.34,160
342,176.82,162
343,177.3,159
344,177.78,166
345,178.27,163
346,178.75,157
347,179.23,173
348,179.71,157
349,180.19,145
350,180.68,166
351,181.16,157
352,181.64,164
353,182.12,158
354,182.6,143
355,183.08,139
356,183.57,152
357,184.05,156
358,184.53,203
359,185.01,256
360,185.49,294
361,185.98,266
362,186.46,187
363,186.94,166
364,187.42,161
365,187.9,152
366,188.39,157
367,188.87,153
368,189.35,137
369,189.83,159
370,190.31,147
371,190.79,141
372,191.28,143
373,191.76,138
374,192.24,146
375,192.72,143
376,193.2,131
377,193.69,162
378,194.17,130
379,194.65,145
380,195.13,132
381,195.61,133
382,196.1,131
383,196.58,138
384,197.06,160
385,197.54,153
386,198.02,135
387,198.51,150
388,198.99,134
389,199.47,140
390,199.95,135
391,200.43,140
392,200.91,139
393,201.4,135
394,201.88,132
395,202.36,127
396,202.84,129
397,203.32,114
398,203.81,129
399,204.29,124
400,204.77,142
401,205.25,145
402,205.73,134
403,206.22,139
404,206.7,144
405,207.18,111
406,207.66,128
407,208.14,119
408,208.63,133
409,209.11,134
410,209.59,128
411,210.07,128
412,210.55,106
413,211.03,135
414,211.52,119
415,212.0,141
416,212.48,126
417,212.96,122
418,213.44,117
419,213.93,112
420,214.41,112
421,214.89,115
422,215.37,116
423,215.85,108
424,216.34,113
425,216.82,134
426,217.3,114
427,217.78,122
428,218.26,130
429,218.75,132
430,219.23,121
431,219.71,123
432,220.19,122
433,220.67,117
434,221.15,122
435,221.64,108
436,222.12,108
437,222.6,107
438,223.08,118
439,223.56,111
440,224.05,127
441,224.53,91
442,225.01,111
443,225.49,119
444,225.97,104
445,226.46,106
446,226.94,104
447,227.42,106
448,227.9,125
449,228.38,94
450,228.87,98
451,229.35,99
452,229.83,117
453,230.31,122
454,230.79,87
455,231.27,121
456,231.76,98
457,232.24,104
458,232.72,98
459,233.2,82
460,233.68,101
461,234.17,108
462,234.65,95
463,235.13,102
464,235.61,107
465,236.09,103
466,236.58,106
467,237.06,106
468,237.54,115
469,238.02,138
470,238.5,171
471,238.98,138
472,239.47,105
473,239.95,109
474,240.43,101
475,240.91,87
476,241.39,119
477,241.88,104
478,242.36,80
479,242.84,112
480,243.32,93
481,243.8,92
482,244.29,108
483,244.77,87
484,245.25,105
485,245.73,97
486,246.21,97
487,246.7,73
488,247.18,98
489,247.66,95
490,248.14,113
491,248.62,109
492,249.1,93
493,249.59,81
494,250.07,108
495,250.55,91
496,251.03,94
497,251.51,98
498,252.0,98
499,252.48,92
500,252.96,90
501,253.44,89
502,253.92,90
503,254.41,79
504,254.89,84
505,255.37,101
506,255.85,89
507,256.33,97
508,256.82,86
509,257.3,102
510,257.78,86
511,258.26,101
512,258.74,81
513,259.22,85
514,259.71,69
515,260.19,91
516,260.67,81
517,261.15,98
518,261.63,97
519,262.12,82
520,262.6,84
521,263.08,89
522,263.56,88
523,264.04,93
524,264.53,97
525,265.01,81
526,265.49,113
527,265.97,79
528,266.45,77
529,266.94,85
530,267.42,102
531,267.9,90
532,268.38,71
533,268.86,86
534,269.34,82
535,269.83,78
536,270.31,89
537,270.79,81
538,271.27,63
539,271.75,90
540,272.24,84
541,272.72,73
542,273.2,74
543,273.68,82
544,274.16,85
545,274.65,76
546,275.13,79
547,275.61,78
548,276.09,79
549,276.57,83
550,277.06,74
551,277.54,87
552,278.02,80
553,278.5,76
554,278.98,81
555,279.46,70
556,279.95,87
557,280.43,75
558,280.91,87
559,281.39,67
560,281.87,75
561,282.36,65
562,282.84,77
563,283.32,62
564,283.8,67
565,284.28,73
566,284.77,49
567,285.25,56
568,285.73,59
569,286.21,66
570,286.69,70
571,287.17,70
572,287.66,85
573,288.14,72
574,288.62,58
575,289.1,71
576,289.58,75
577,290.07,70
578,290.55,75
579,291.03,77
580,291.51,80
581,291.99,52
582,292.48,72
583,292.96,73
584,293.44,87
585,293.92,79
586,294.4,84
587,294.89,75
588,295.37,86
589,295.85,95
590,296.33,60
591,296.81,77
592,297.29,68
593,297.78,76
594,298.26,73
595,298.74,51
596,299.22,78
597,299.7,65
598,300.19,72
599,300.67,55
600,301.15,78
601,301.63,71
602,302.11,75
603,302.6,61
604,303.08,57
605,303.56,66
606,304.04,65
607,304.52,77
608,305.01,74
609,305.49,81
610,305.97,61
611,306.45,67
612,306.93,65
613,307.41,64
614,307.9,57
615,308.38,69
616,308.86,68
617,309.34,60
618,309.82,57
619,310.31,74
620,310.79,46
621,311.27,70
622,311.75,69
623,312.23,61
624,312.72,52
625,313.2,72
626,313.68,70
627,314.16,57
628,314.64,75
629,315.13,59
630,315.61,62
631,316.09,64
632,316.57,52
633,317.05,71
634,317.53,55
635,318.02,47
636,318.5,60
637,318.98,68
638,319.46,67
639,319.94,66
640,320.43,51
641,320.91,63
642,321.39,69
643,321.87,51
644,322.35,63
645,322.84,60
646,323.32,70
647,323.8,55
648,324.28,53
649,324.76,63
650,325.25,65
651,325.73,51
652,326.21,67
653,326.69,68
654,327.17,60
655,327.65,66
656,328.14,61
657,328.62,50
658,329.1,62
659,329.58,53
660,330.06,57
661,330.55,54
662,331.03,57
663,331.51,45
664,331.99,65
665,332.47,53
666,332.96,58
667,333.44,61
668,333.92,46
669,334.4,59
670,334.88,60
671,335.36,53
672,335.85,65
673,336.33,53
674,336.81,67
675,337.29,71
676,337.77,66
677,338.26,65
678,338.74,62
679,339.22,57
680,339.7,59
681,340.18,41
682,340.67,66
683,341.15,46
684,341.63,60
685,342.11,62
686,342.59,51
687,343.08,57
688,343.56,45
689,344.04,46
690,344.52,50
691,345.0,52
692,345.48,61
693,345.97,65
694,346.45,45
695,346.93,46
696,347.41,55
697,347.89,59
698,348.38,46
699,348.86,49
700,349.34,60
701,349.82,50
702,350.3,57
703,350.79,65
704,351.27,76
705,351.75,79
706,352.23,63
707,352.71,64
708,353.2,40
709,353.68,57
710,354.16,30
711,354.64,51
712,355.12,42
713,355.6,42
714,356.09,53
715,356.57,66
716,357.05,44
717,357.53,52
718,358.01,45
719,358.5,56
720,358.98,46
721,359.46,54
722,359.94,43
723,360.42,55
724,360.91,45
725,361.39,52
726,361.87,41
727,362.35,62
728,362.83,42
729,363.32,61
730,363.8,53
731,364.28,55
732,364.76,58
733,365.24,39
734,365.72,57
735,366.21,41
736,366.69,45
737,367.17,36
738,367.65,45
739,368.13,49
740,368.62,52
741,369.1,38
742,369.58,54
743,370.06,42
744,370.54,42
745,371.03,48
746,371.51,45
747,371.99,55
748,372.47,59
749,372.95,48
750,373.44,38
751,373.92,52
752,374.4,48
753,374.88,58
754,375.36,47
755,375.84,49
756,376.33,53
757,376.81,38
758,377.29,40
759,377.77,33
760,378.25,46
761,378.74,41
762,379.22,41
763,379.7,42
764,380.18,39
765,380.66,37
766,381.15,33
767,381.63,43
768,382.11,51
769,382.59,52
770,383.07,38
771,383.55,50
772,384.04,47
773,384.52,45
774,385.0,45
775,385.48,38
776,385.96,36
777,386.45,58
778,386.93,49
779,387.41,46
780,387.89,51
781,388.37,38
782,388.86,50
783,389.34,45
784,389.82,48
785,390.3,34
786,390.78,42
787,391.27,37
788,391.75,36
789,392.23,52
790,392.71,45
791,393.19,34
792,393.67,41
793,394.16,43
794,394.64,31
795,395.12,32
796,395.6,45
797,396.08,48
798,396.57,44
799,397.05,35
800,397.53,39
801,398.01,45
802,398.49,48
803,398.98,40
804,399.46,40
805,399.94,46
806,400.42,40
807,400.9,54
808,401.39,42
809,401.87,38
810,402.35,39
811,402.83,36
812,403.31,47
813,403.79,34
814,404.28,35
815,404.76,32
816,405.24,33
817,405.72,25
818,406.2,42
819,406.69,38
820,407.17,37
821,407.65,37
822,408.13,39
823,408.61,30
824,409.1,45
825,409.58,45
826,410.06,34
827,410.54,52
828,411.02,29
829,411.51,48
830,411.99,38
831,412.47,40
832,412.95,37
833,413.43,38
834,413.91,41
835,414.4,37
836,414.88,31
837,415.36,45
838,415.84,43
839,416.32,39
840,416.81,42
841,417.29,38
842,417.77,35
843,418.25,39
844,418.73,44
845,419.22,32
846,419.7,51
847,420.18,41
848,420.66,34
849,421.14,38
850,421.63,27
851,422.11,39
852,422.59,37
853,423.07,44
854,423.55,46
855,424.03,44
856,424.52,41
857,425.0,32
858,425.48,30
859,425.96,43
860,426.44,37
861,426.93,35
862,427.41,39
863,427.89,35
864,428.37,34
865,428.85,37
866,429.34,40
867,429.82,26
868,430.3,43
869,430.78,35
870,431.26,39
871,431.74,27
872,432.23,35
873,432.71,31
874,433.19,41
875,433.67,33
876,434.15,37
877,434.64,39
878,435.12,44
879,435.6,39
880,436.08,31
881,436.56,30
882,437.05,43
883,437.53,43
884,438.01,45
885,438.49,40
886,438.97,31
887,439.46,42
888,439.94,32
889,440.42,33
890,440.9,38
891,441.38,38
892,441.86,29
893,442.35,29
894,442.83,34
895,443.31,35
896,443.79,32
897,444.27,27
898,444.76,32
899,445.24,29
900,445.72,41
901,446.2,33
902,446.68,49
903,447.17,32
904,447.65,39
905,448.13,34
906,448.61,28
907,449.09,28
908,449.58,40
909,450.06,39
910,450.54,33
911,451.02,32
912,451.5,23
913,451.98,35
914,452.47,33
915,452.95,32
916,453.43,46
917,453.91,33
918,454.39,43
919,454.88,35
920,455.36,32
921,455.84,30
922,456.32,33
923,456.8,27
924,457.29,27
925,457.77,36
926,458.25,29
927,458.73,38
928,459.21,23
929,459.7,27
930,460.18,32
931,460.66,37
932,461.14,26
933,461.62,30
934,462.1,42
935,462.59,29
936,463.07,43
937,463.55,24
938,464.03,35
939,464.51,42
940,465.0,32
941,465.48,28
942,465.96,28
943,466.44,38
944,466.92,30
945,467.41,27
946,467.89,32
947,468.37,35
948,468.85,31
949,469.33,27
950,469.82,26
951,470.3,37
952,470.78,31
953,471.26,32
954,471.74,52
955,472.22,27
956,472.71,34
957,473.19,33
958,473.67,32
959,474.15,27
960,474.63,31
961,475.12,33
962,475.6,23
963,476.08,22
964,476.56,30
965,477.04,26
966,477.53,30
967,478.01,32
968,478.49,36
969,478.97,26
970,479.45,29
971,479.93,36
972,480.42,34
973,480.9,40
974,481.38,27
975,481.86,24
976,482.34,32
977,482.83,25
978,483.31,27
979,483.79,28
980,484.27,36
981,484.75,25
982,485.24,29
983,485.72,30
984,486.2,29
985,486.68,33
986,487.16,32
987,487.65,38
988,488.13,19
989,488.61,36
990,489.09,27
991,489.57,38
992,490.05,22
993,490.54,37
994,491.02,29
995,491.5,25
996,491.98,23
997,492.46,20
998,492.95,33
999,493.43,28
1000,493.91,26
1001,494.39,32
1002,494.87,31
1003,495.36,29
1004,495.84,29
1005,496.32,32
1006,496.8,41
1007,497.28,33
1008,497.77,28
1009,498.25,28
1010,498.73,29
1011,499.21,35
1012,499.69,25
1013,500.17,31
1014,500.66,27
1015,501.14,33
1016,501.62,29
1017,502.1,18
1018,502.58,23
1019,503.07,26
1020,503.55,36
1021,504.03,25
1022,504.51,20
1023,504.99,34
1024,505.48,34
1025,505.96,26
1026,506.44,25
1027,506.92,27
1028,507.4,32
1029,507.89,31
1030,508.37,41
1031,508.85,51
1032,509.33,76
1033,509.81,97
1034,510.29,97
1035,510.78,86
1036,511.26,98
1037,511.74,79
1038,512.22,68
1039,512.7,49
1040,513.19,42
1041,513.67,34
1042,514.15,33
1043,514.63,25
1044,515.11,33
1045,515.6,25
1046,516.08,35
1047,516.56,22
1048,517.04,26
1049,517.52,20
1050,518.01,22
1051,518.49,17
1052,518.97,33
1053,519.45,29
1054,519.93,28
1055,520.41,27
1056,520.9,27
1057,521.38,30
1058,521.86,27
1059,522.34,25
1060,522.82,21
1061,523.31,32
1062,523.79,19
1063,524.27,30
1064,524.75,26
1065,525.23,18
1066,525.72,26
1067,526.2,35
1068,526.68,19
1069,527.16,29
1070,527.64,22
1071,528.12,35
1072,528.61,20
1073,529.09,26
1074,529.57,23
1075,530.05,21
1076,530.53,27
1077,531.02,20
1078,531.5,33
1079,531.98,28
1080,532.46,22
1081,532.94,17
1082,533.43,24
1083,533.91,23
1084,534.39,21
1085,534.87,29
1086,535.35,32
1087,535.84,26
1088,536.32,25
1089,536.8,25
1090,537.28,28
1091,537.76,24
1092,538.24,28
1093,538.73,25
1094,539.21,25
1095,539.69,25
1096,540.17,20
1097,540.65,40
1098,541.14,23
1099,541.62,24
1100,542.1,25
1101,542.58,29
1102,543.06,21
1103,543.55,24
1104,544.03,21
1105,544.51,32
1106,544.99,32
1107,545.47,27
1108,545.96,25
1109,546.44,33
1110,546.92,23
1111,547.4,19
1112,547.88,27
1113,548.36,23
1114,548.85,25
1115,549.33,21
1116,549.81,26
1117,550.29,32
1118,550.77,25
1119,551.26,28
1120,551.74,23
1121,552.22,27
1122,552.7,23
1123,553.18,26
1124,553.67,23
1125,554.15,27
1126,554.63,29
1127,555.11,26
1128,555.59,24
1129,556.08,27
1130,556.56,21
1131,557.04,20
1132,557.52,29
1133,558.0,22
1134,558.48,22
1135,558.97,26
1136,559.45,28
1137,559.93,19
1138,560.41,29
1139,560.89,23
1140,561.38,27
1141,561.86,35
1142,562.34,26
1143,562.82,13
1144,563.3,23
1145,563.79,29
1146,564.27,18
1147,564.75,24
1148,565.23,21
1149,565.71,29
1150,566.2,30
1151,566.68,24
1152,567.16,17
1153,567.64,31
1154,568.12,25
1155,568.6,23
1156,569.09,25
1157,569.57,24
1158,570.05,24
1159,570.53,24
1160,571.01,36
1161,571.5,27
1162,571.98,16
1163,572.46,30
1164,572.94,15
1165,573.42,17
1166,573.91,19
1167,574.39,25
1168,574.87,25
1169,575.35,24
1170,575.83,22
1171,576.31,33
1172,576.8,24
1173,577.28,15
1174,577.76,22
1175,578.24,27
1176,578.72,31
1177,579.21,40
1178,579.69,20
1179,580.17,21
1180,580.65,32
1181,581.13,29
1182,581.62,25
1183,582.1,27
1184,582.58,31
1185,583.06,35
1186,583.54,31
1187,584.03,33
1188,584.51,24
1189,584.99,21
1190,585.47,17
1191,585.95,27
1192,586.43,15
1193,586.92,19
1194,587.4,12
1195,587.88,26
1196,588.36,19
1197,588.84,25
1198,589.33,28
1199,589.81,24
1200,590.29,21
1201,590.77,23
1202,591.25,21
1203,591.74,26
1204,592.22,24
1205,592.7,26
1206,593.18,30
1207,593.66,24
1208,594.15,31
1209,594.63,34
1210,595.11,25
1211,595.59,34
1212,596.07,22
1213,596.55,23
1214,597.04,19
1215,597.52,22
1216,598.0,19
1217,598.48,17
1218,598.96,23
1219,599.45,18
1220,599.93,29
1221,600.41,22
1222,600.89,22
1223,601.37,17
1224,601.86,14
1225,602.34,19
1226,602.82,22
1227,603.3,16
1228,603.78,13
1229,604.27,20
1230,604.75,15
1231,605.23,23
1232,605.71,16
1233,606.19,18
1234,606.67,21
1235,607.16,28
1236,607.64,20
1237,608.12,31
1238,608.6,40
1239,609.08,42
1240,609.57,33
1241,610.05,28
1242,610.53,24
1243,611.01,21
1244,611.49,19
1245,611.98,22
1246,612.46,29
1247,612.94,26
1248,613.42,22
1249,613.9,22
1250,614.39,24
1251,614.87,22
1252,615.35,29
1253,615.83,22
1254,616.31,23
1255,616.79,19
1256,617.28,18
1257,617.76,23
1258,618.24,22
1259,618.72,23
1260,619.2,19
1261,619.69,17
1262,620.17,18
1263,620.65,22
1264,621.13,22
1265,621.61,19
1266,622.1,23
1267,622.58,24
1268,623.06,14
1269,623.54,17
1270,624.02,27
1271,624.5,29
1272,624.99,18
1273,625.47,18
1274,625.95,21
1275,626.43,21
1276,626.91,18
1277,627.4,20
1278,627.88,18
1279,628.36,19
1280,628.84,23
1281,629.32,21
1282,629.81,21
1283,630.29,18
1284,630.77,21
1285,631.25,15
1286,631.73,22
1287,632.22,26
1288,632.7,26
1289,633.18,25
1290,633.66,16
1291,634.14,27
1292,634.62,28
1293,635.11,23
1294,635.59,21
1295,636.07,31
1296,636.55,17
1297,637.03,12
1298,637.52,21
1299,638.0,20
1300,638.48,18
1301,638.96,22
1302,639.44,19
1303,639.93,25
1304,640.41,17
1305,640.89,25
1306,641.37,12
1307,641.85,26
1308,642.34,20
1309,642.82,19
1310,643.3,19
1311,643.78,17
1312,644.26,23
1313,644.74,14
1314,645.23,17
1315,645.71,22
1316,646.19,18
1317,646.67,14
1318,647.15,20
1319,647.64,14
1320,648.12,19
1321,648.6,19
1322,649.08,22
1323,649.56,23
1324,650.05,20
1325,650.53,26
1326,651.01,13
1327,651.49,22
1328,651.97,18
1329,652.46,18
1330,652.94,19
1331,653.42,21
1332,653.9,24
1333,654.38,19
1334,654.86,15
1335,655.35,24
1336,655.83,24
1337,656.31,14
1338,656.79,37
1339,657.27,21
1340,657.76,17
1341,658.24,17
1342,658.72,18
1343,659.2,19
1344,659.68,18
1345,660.17,28
1346,660.65,26
1347,661.13,26
1348,661.61,15
1349,662.09,22
1350,662.58,22
1351,663.06,20
1352,663.54,26
1353,664.02,20
1354,664.5,21
1355,664.98,15
1356,665.47,28
1357,665.95,20
1358,666.43,25
1359,666.91,20
1360,667.39,17
1361,667.88,14
1362,668.36,17
1363,668.84,23
1364,669.32,18
1365,669.8,14
1366,670.29,25
1367,670.77,17
1368,671.25,25
1369,671.73,20
1370,672.21,18
1371,672.69,19
1372,673.18,22
1373,673.66,27
1374,674.14,19
1375,674.62,15
1376,675.1,17
1377,675.59,19
1378,676.07,18
1379,676.55,18
1380,677.03,15
1381,677.51,27
1382,678.0,16
1383,678.48,19
1384,678.96,22
1385,679.44,15
1386,679.92,18
1387,680.41,17
1388,680.89,29
1389,681.37,20
1390,681.85,16
1391,682.33,18
1392,682.81,12
1393,683.3,13
1394,683.78,16
1395,684.26,19
