Canal,Energía (keV),Cuentas
1,12.49,3
2,12.97,5
3,13.46,1
4,13.94,4
5,14.42,2
6,14.9,4
7,15.38,4
8,15.87,1
9,16.35,4
10,16.83,0
11,17.31,12
12,17.79,78
13,18.27,241
14,18.76,279
15,19.24,461
16,19.72,709
17,20.2,961
18,20.68,1119
19,21.17,883
20,21.65,633
21,22.13,416
22,22.61,342
23,23.09,243
24,23.58,261
25,24.06,247
26,24.54,258
27,25.02,229
28,25.5,222
29,25.99,238
30,26.47,179
31,26.95,201
32,27.43,187
33,27.91,186
34,28.39,149
35,28.88,144
36,29.36,182
37,29.84,172
38,30.32,186
39,30.8,186
40,31.29,194
41,31.77,177
42,32.25,196
43,32.73,153
44,33.21,168
45,33.7,161
46,34.18,173
47,34.66,163
48,35.14,182
49,35.62,191
50,36.11,181
51,36.59,179
52,37.07,183
53,37.55,150
54,38.03,191
55,38.51,174
56,39.0,188
57,39.48,173
58,39.96,174
59,40.44,209
60,40.92,176
61,41.41,178
62,41.89,171
63,42.37,171
64,42.85,201
65,43.33,202
66,43.82,176
67,44.3,189
68,44.78,169
69,45.26,199
70,45.74,199
71,46.22,240
72,46.71,283
73,47.19,228
74,47.67,193
75,48.15,173
76,48.63,199
77,49.12,200
78,49.6,185
79,50.08,198
80,50.56,200
81,51.04,186
82,51.53,226
83,52.01,204
84,52.49,207
85,52.97,213
86,53.45,215
87,53.94,193
88,54.42,189
89,54.9,187
90,55.38,173
91,55.86,197
92,56.34,194
93,56.83,144
94,57.31,212
95,57.79,200
96,58.27,199
97,58.75,198
98,59.24,192
99,59.72,190
100,60.2,186
101,60.68,196
102,61.16,190
103,61.65,209
104,62.13,223
105,62.61,397
106,63.09,608
107,63.57,561
108,64.06,285
109,64.54,202
110,65.02,214
111,65.5,226
112,65.98,188
113,66.46,210
114,66.95,202
115,67.43,244
116,67.91,218
117,68.39,185
118,68.87,206
119,69.36,209
120,69.84,215
121,70.32,226
122,70.8,203
123,71.28,210
124,71.77,216
125,72.25,222
126,72.73,251
127,73.21,275
128,73.69,210
129,74.18,242
130,74.66,271
131,75.14,276
132,75.62,218
133,76.1,233
134,76.58,275
135,77.07,304
136,77.55,256
137,78.03,210
138,78.51,216
139,78.99,235
140,79.48,233
141,79.96,218
142,80.44,218
143,80.92,245
144,81.4,221
145,81.89,222
146,82.37,217
147,82.85,206
148,83.33,240
149,83.81,260
150,84.3,254
151,84.78,217
152,85.26,238
153,85.74,216
154,86.22,251
155,86.7,228
156,87.19,269
157,87.67,259
158,88.15,231
159,88.63,223
160,89.11,200
161,89.6,248
162,90.08,253
163,90.56,224
164,91.04,221
165,91.52,327
166,92.01,554
167,92.49,705
168,92.97,549
169,93.45,322
170,93.93,217
171,94.41,242
172,94.9,216
173,95.38,225
174,95.86,240
175,96.34,230
176,96.82,257
177,97.31,240
178,97.79,244
179,98.27,239
180,98.75,253
181,99.23,284
182,99.72,227
183,100.2,222
184,100.68,261
185,101.16,192
186,101.64,246
187,102.13,222
188,102.61,214
189,103.09,254
190,103.57,241
191,104.05,222
192,104.53,253
193,105.02,266
194,105.5,240
195,105.98,235
196,106.46,200
197,106.94,256
198,107.43,252
199,107.91,257
200,108.39,234
201,108.87,237
202,109.35,268
203,109.84,221
204,110.32,249
205,110.8,259
206,111.28,229
207,111.76,241
208,112.25,275
209,112.73,282
210,113.21,223
211,113.69,217
212,114.17,180
213,114.65,234
214,115.14,258
215,115.62,224
216,116.1,263
217,116.58,231
218,117.06,234
219,117.55,237
220,118.03,255
221,118.51,254
222,118.99,257
223,119.47,209
224,119.96,232
225,120.44,257
226,120.92,249
227,121.4,233
228,121.88,211
229,122.37,232
230,122.85,238
231,123.33,222
232,123.81,213
233,124.29,240
234,124.77,215
235,125.26,234
236,125.74,242
237,126.22,208
238,126.7,251
239,127.18,216
240,127.67,209
241,128.15,225
242,128.63,232
243,129.11,222
244,129.59,230
245,130.08,231
246,130.56,225
247,131.04,215
248,131.52,238
249,132.0,239
250,132.49,226
251,132.97,239
252,133.45,223
253,133.93,249
254,134.41,227
255,134.89,239
256,135.38,215
257,135.86,225
258,136.34,230
259,136.82,205
260,137.3,214
261,137.79,221
262,138.27,214
263,138.75,230
264,139.23,223
265,139.71,213
266,140.2,238
267,140.68,231
268,141.16,253
269,141.64,190
270,142.12,195
271,142.6,197
272,143.09,250
273,143.57,236
274,144.05,215
275,144.53,204
276,145.01,226
277,145.5,186
278,145.98,196
279,146.46,214
280,146.94,205
281,147.42,211
282,147.91,184
283,148.39,223
284,148.87,201
285,149.35,194
286,149.83,200
287,150.32,214
288,150.8,229
289,151.28,183
290,151.76,227
291,152.24,166
292,152.72,183
293,153.21,198
294,153.69,195
295,154.17,198
296,154.65,212
297,155.13,184
298,155.62,206
299,156.1,212
300,156.58,194
301,157.06,191
302,157.54,216
303,158.03,193
304,158.51,153
305,158.99,194
306,159.47,181
307,159.95,209
308,160.44,189
309,160.92,189
310,161.4,189
311,161.88,212
312,162.36,174
313,162.84,182
314,163.33,185
315,163.81,187
316,164.29,202
317,164.77,177
318,165.25,178
319,165.74,188
320,166.22,183
321,166.7,168
322,167.18,168
323,167.66,203
324,168.15,188
325,168.63,175
326,169.11,183
327,169.59,166
328,170.07,154
329,170.56,169
330,171.04,167
331,171.52,165
332,172.0,161
333,172.48,182
334,172.96,169
335,173.45,176
336,173.93,174
337,174.41,199
338,174.89,162
339,175.37,162
340,175.86,196
341,176.34,173
342,176.82,169
343,177.3,150
344,177.78,165
345,178.27,169
346,178.75,174
347,179.23,163
348,179.71,172
349,180.19,191
350,180.68,160
351,181.16,170
352,181.64,159
353,182.12,159
354,182.6,156
355,183.08,180
356,183.57,162
357,184.05,159
358,184.53,192
359,185.01,276
360,185.49,357
361,185.98,276
362,186.46,188
363,186.94,165
364,187.42,150
365,187.9,173
366,188.39,137
367,188.87,149
368,189.35,134
369,189.83,158
370,190.31,136
371,190.79,166
372,191.28,133
373,191.76,164
374,192.24,142
375,192.72,146
376,193.2,135
377,193.69,139
378,194.17,146
379,194.65,152
380,195.13,149
381,195.61,148
382,196.1,137
383,196.58,138
384,197.06,161
385,197.54,152
386,198.02,168
387,198.51,161
388,198.99,139
389,199.47,137
390,199.95,123
391,200.43,146
392,200.91,158
393,201.4,138
394,201.88,131
395,202.36,133
396,202.84,116
397,203.32,121
398,203.81,126
399,204.29,134
400,204.77,159
401,205.25,156
402,205.73,144
403,206.22,142
404,206.7,139
405,207.18,135
406,207.66,127
407,208.14,165
408,208.63,154
409,209.11,137
410,209.59,130
411,210.07,136
412,210.55,141
413,211.03,142
414,211.52,156
415,212.0,126
416,212.48,124
417,212.96,112
418,213.44,110
419,213.93,126
420,214.41,110
421,214.89,139
422,215.37,146
423,215.85,121
424,216.34,115
425,216.82,126
426,217.3,144
427,217.78,138
428,218.26,137
429,218.75,136
430,219.23,110
431,219.71,113
432,220.19,103
433,220.67,123
434,221.15,110
435,221.64,138
436,222.12,118
437,222.6,112
438,223.08,127
439,223.56,118
440,224.05,95
441,224.53,121
442,225.01,111
443,225.49,113
444,225.97,116
445,226.46,112
446,226.94,120
447,227.42,115
448,227.9,121
449,228.38,109
450,228.87,105
451,229.35,127
452,229.83,118
453,230.31,102
454,230.79,125
455,231.27,102
456,231.76,122
457,232.24,106
458,232.72,135
459,233.2,130
460,233.68,99
461,234.17,130
462,234.65,111
463,235.13,94
464,235.61,116
465,236.09,126
466,236.58,107
467,237.06,115
468,237.54,129
469,238.02,135
470,238.5,152
471,238.98,148
472,239.47,111
473,239.95,98
474,240.43,117
475,240.91,93
476,241.39,112
477,241.88,110
478,242.36,118
479,242.84,114
480,243.32,103
481,243.8,102
482,244.29,94
483,244.77,100
484,245.25,88
485,245.73,94
486,246.21,105
487,246.7,105
488,247.18,86
489,247.66,102
490,248.14,95
491,248.62,94
492,249.1,103
493,249.59,97
494,250.07,93
495,250.55,120
496,251.03,106
497,251.51,91
498,252.0,100
499,252.48,102
500,252.96,71
501,253.44,92
502,253.92,86
503,254.41,99
504,254.89,73
505,255.37,91
506,255.85,74
507,256.33,99
508,256.82,104
509,257.3,79
510,257.78,98
511,258.26,109
512,258.74,98
513,259.22,98
514,259.71,86
515,260.19,82
516,260.67,81
517,261.15,98
518,261.63,100
519,262.12,86
520,262.6,91
521,263.08,94
522,263.56,72
523,264.04,106
524,264.53,82
525,265.01,74
526,265.49,85
527,265.97,93
528,266.45,91
529,266.94,88
530,267.42,96
531,267.9,75
532,268.38,90
533,268.86,85
534,269.34,89
535,269.83,88
536,270.31,97
537,270.79,81
538,271.27,105
539,271.75,94
540,272.24,96
541,272.72,78
542,273.2,73
543,273.68,80
544,274.16,72
545,274.65,88
546,275.13,80
547,275.61,92
548,276.09,78
549,276.57,72
550,277.06,71
551,277.54,88
552,278.02,81
553,278.5,74
554,278.98,78
555,279.46,86
556,279.95,74
557,280.43,78
558,280.91,72
559,281.39,72
560,281.87,82
561,282.36,92
562,282.84,63
563,283.32,83
564,283.8,88
565,284.28,78
566,284.77,76
567,285.25,83
568,285.73,97
569,286.21,84
570,286.69,77
571,287.17,71
572,287.66,70
573,288.14,67
574,288.62,69
575,289.1,88
576,289.58,69
577,290.07,72
578,290.55,90
579,291.03,78
580,291.51,73
581,291.99,75
582,292.48,65
583,292.96,74
584,293.44,94
585,293.92,63
586,294.4,82
587,294.89,86
588,295.37,70
589,295.85,78
590,296.33,46
591,296.81,76
592,297.29,71
593,297.78,81
594,298.26,60
595,298.74,72
596,299.22,85
597,299.7,57
598,300.19,78
599,300.67,66
600,301.15,68
601,301.63,82
602,302.11,65
603,302.6,76
604,303.08,80
605,303.56,64
606,304.04,75
607,304.52,73
608,305.01,63
609,305.49,68
610,305.97,58
611,306.45,59
612,306.93,57
613,307.41,71
614,307.9,61
615,308.38,88
616,308.86,58
617,309.34,79
618,309.82,64
619,310.31,77
620,310.79,58
621,311.27,70
622,311.75,60
623,312.23,76
624,312.72,77
625,313.2,78
626,313.68,68
627,314.16,72
628,314.64,58
629,315.13,68
630,315.61,56
631,316.09,72
632,316.57,54
633,317.05,55
634,317.53,85
635,318.02,56
636,318.5,65
637,318.98,58
638,319.46,69
639,319.94,76
640,320.43,61
641,320.91,39
642,321.39,61
643,321.87,63
644,322.35,58
645,322.84,68
646,323.32,66
647,323.8,73
648,324.28,70
649,324.76,71
650,325.25,69
651,325.73,68
652,326.21,61
653,326.69,65
654,327.17,74
655,327.65,58
656,328.14,59
657,328.62,68
658,329.1,67
659,329.58,59
660,330.06,71
661,330.55,62
662,331.03,53
663,331.51,52
664,331.99,61
665,332.47,60
666,332.96,61
667,333.44,52
668,333.92,49
669,334.4,61
670,334.88,52
671,335.36,66
672,335.85,56
673,336.33,53
674,336.81,75
675,337.29,63
676,337.77,59
677,338.26,76
678,338.74,60
679,339.22,57
680,339.7,70
681,340.18,61
682,340.67,64
683,341.15,63
684,341.63,61
685,342.11,71
686,342.59,59
687,343.08,43
688,343.56,58
689,344.04,46
690,344.52,47
691,345.0,52
692,345.48,36
693,345.97,56
694,346.45,52
695,346.93,58
696,347.41,62
697,347.89,68
698,348.38,59
699,348.86,55
700,349.34,47
701,349.82,52
702,350.3,50
703,350.79,60
704,351.27,66
705,351.75,77
706,352.23,65
707,352.71,50
708,353.2,57
709,353.68,43
710,354.16,39
711,354.64,56
712,355.12,49
713,355.6,59
714,356.09,48
715,356.57,60
716,357.05,53
717,357.53,47
718,358.01,54
719,358.5,46
720,358.98,55
721,359.46,38
722,359.94,42
723,360.42,32
724,360.91,54
725,361.39,47
726,361.87,36
727,362.35,41
728,362.83,62
729,363.32,48
730,363.8,52
731,364.28,55
732,364.76,36
733,365.24,53
734,365.72,48
735,366.21,52
736,366.69,51
737,367.17,61
738,367.65,42
739,368.13,37
740,368.62,50
741,369.1,53
742,369.58,43
743,370.06,55
744,370.54,44
745,371.03,59
746,371.51,45
747,371.99,54
748,372.47,47
749,372.95,46
750,373.44,50
751,373.92,42
752,374.4,52
753,374.88,56
754,375.36,44
755,375.84,51
756,376.33,47
757,376.81,47
758,377.29,35
759,377.77,45
760,378.25,53
761,378.74,42
762,379.22,51
763,379.7,44
764,380.18,54
765,380.66,53
766,381.15,41
767,381.63,56
768,382.11,45
769,382.59,51
770,383.07,42
771,383.55,45
772,384.04,53
773,384.52,43
774,385.0,48
775,385.48,42
776,385.96,45
777,386.45,42
778,386.93,47
779,387.41,45
780,387.89,45
781,388.37,45
782,388.86,37
783,389.34,45
784,389.82,47
785,390.3,37
786,390.78,42
787,391.27,43
788,391.75,59
789,392.23,50
790,392.71,44
791,393.19,38
792,393.67,58
793,394.16,37
794,394.64,45
795,395.12,35
796,395.6,47
797,396.08,45
798,396.57,48
799,397.05,51
800,397.53,46
801,398.01,41
802,398.49,31
803,398.98,45
804,399.46,40
805,399.94,45
806,400.42,44
807,400.9,36
808,401.39,48
809,401.87,41
810,402.35,36
811,402.83,42
812,403.31,38
813,403.79,47
814,404.28,45
815,404.76,48
816,405.24,42
817,405.72,49
818,406.2,41
819,406.69,36
820,407.17,40
821,407.65,44
822,408.13,42
823,408.61,34
824,409.1,38
825,409.58,41
826,410.06,43
827,410.54,43
828,411.02,41
829,411.51,41
830,411.99,36
831,412.47,42
832,412.95,48
833,413.43,41
834,413.91,52
835,414.4,41
836,414.88,42
837,415.36,38
838,415.84,32
839,416.32,49
840,416.81,51
841,417.29,40
842,417.77,32
843,418.25,47
844,418.73,40
845,419.22,41
846,419.7,38
847,420.18,48
848,420.66,37
849,421.14,38
850,421.63,40
851,422.11,35
852,422.59,46
853,423.07,34
854,423.55,43
855,424.03,40
856,424.52,38
857,425.0,37
858,425.48,32
859,425.96,34
860,426.44,36
861,426.93,28
862,427.41,32
863,427.89,32
864,428.37,38
865,428.85,51
866,429.34,40
867,429.82,40
868,430.3,40
869,430.78,39
870,431.26,33
871,431.74,44
872,432.23,40
873,432.71,45
874,433.19,27
875,433.67,43
876,434.15,42
877,434.64,37
878,435.12,45
879,435.6,44
880,436.08,35
881,436.56,37
882,437.05,36
883,437.53,47
884,438.01,33
885,438.49,45
886,438.97,43
887,439.46,32
888,439.94,45
889,440.42,32
890,440.9,40
891,441.38,43
892,441.86,38
893,442.35,40
894,442.83,42
895,443.31,37
896,443.79,36
897,444.27,33
898,444.76,34
899,445.24,33
900,445.72,42
901,446.2,45
902,446.68,48
903,447.17,47
904,447.65,32
905,448.13,34
906,448.61,44
907,449.09,41
908,449.58,32
909,450.06,30
910,450.54,42
911,451.02,39
912,451.5,35
913,451.98,37
914,452.47,25
915,452.95,35
916,453.43,32
917,453.91,39
918,454.39,26
919,454.88,42
920,455.36,29
921,455.84,48
922,456.32,41
923,456.8,31
924,457.29,34
925,457.77,45
926,458.25,37
927,458.73,35
928,459.21,36
929,459.7,39
930,460.18,35
931,460.66,43
932,461.14,35
933,461.62,38
934,462.1,36
935,462.59,41
936,463.07,34
937,463.55,32
938,464.03,29
939,464.51,23
940,465.0,29
941,465.48,39
942,465.96,40
943,466.44,32
944,466.92,49
945,467.41,30
946,467.89,36
947,468.37,36
948,468.85,37
949,469.33,34
950,469.82,39
951,470.3,25
952,470.78,25
953,471.26,33
954,471.74,34
955,472.22,32
956,472.71,33
957,473.19,33
958,473.67,40
959,474.15,37
960,474.63,42
961,475.12,37
962,475.6,34
963,476.08,30
964,476.56,32
965,477.04,37
966,477.53,38
967,478.01,49
968,478.49,41
969,478.97,35
970,479.45,19
971,479.93,41
972,480.42,35
973,480.9,47
974,481.38,30
975,481.86,37
976,482.34,28
977,482.83,39
978,483.31,30
979,483.79,29
980,484.27,33
981,484.75,33
982,485.24,28
983,485.72,34
984,486.2,35
985,486.68,36
986,487.16,27
987,487.65,30
988,488.13,23
989,488.61,27
990,489.09,29
991,489.57,36
992,490.05,30
993,490.54,22
994,491.02,40
995,491.5,23
996,491.98,26
997,492.46,31
998,492.95,31
999,493.43,36
1000,493.91,32
1001,494.39,33
1002,494.87,37
1003,495.36,32
1004,495.84,28
1005,496.32,40
1006,496.8,36
1007,497.28,39
1008,497.77,25
1009,498.25,25
1010,498.73,34
1011,499.21,42
1012,499.69,43
1013,500.17,30
1014,500.66,41
1015,501.14,32
1016,501.62,28
1017,502.1,32
1018,502.58,29
1019,503.07,31
1020,503.55,43
1021,504.03,32
1022,504.51,43
1023,504.99,32
1024,505.48,40
1025,505.96,33
1026,506.44,25
1027,506.92,33
1028,507.4,27
1029,507.89,40
1030,508.37,45
1031,508.85,59
1032,509.33,67
1033,509.81,75
1034,510.29,106
1035,510.78,91
1036,511.26,97
1037,511.74,94
1038,512.22,74
1039,512.7,56
1040,513.19,46
1041,513.67,42
1042,514.15,37
1043,514.63,40
1044,515.11,35
1045,515.6,31
1046,516.08,23
1047,516.56,30
1048,517.04,21
1049,517.52,30
1050,518.01,28
1051,518.49,29
1052,518.97,27
1053,519.45,33
1054,519.93,33
1055,520.41,34
1056,520.9,23
1057,521.38,25
1058,521.86,31
1059,522.34,37
1060,522.82,23
1061,523.31,29
1062,523.79,24
1063,524.27,29
1064,524.75,41
1065,525.23,30
1066,525.72,33
1067,526.2,26
1068,526.68,22
1069,527.16,26
1070,527.64,27
1071,528.12,30
1072,528.61,24
1073,529.09,27
1074,529.57,34
1075,530.05,28
1076,530.53,20
1077,531.02,23
1078,531.5,27
1079,531.98,16
1080,532.46,23
1081,532.94,24
1082,533.43,24
1083,533.91,17
1084,534.39,35
1085,534.87,28
1086,535.35,12
1087,535.84,28
1088,536.32,19
1089,536.8,33
1090,537.28,26
1091,537.76,34
1092,538.24,31
1093,538.73,33
1094,539.21,23
1095,539.69,34
1096,540.17,34
1097,540.65,24
1098,541.14,22
1099,541.62,22
1100,542.1,21
1101,542.58,30
1102,543.06,27
1103,543.55,28
1104,544.03,24
1105,544.51,34
1106,544.99,33
1107,545.47,20
1108,545.96,26
1109,546.44,31
1110,546.92,29
1111,547.4,25
1112,547.88,25
1113,548.36,32
1114,548.85,22
1115,549.33,28
1116,549.81,32
1117,550.29,31
1118,550.77,28
1119,551.26,28
1120,551.74,24
1121,552.22,32
1122,552.7,28
1123,553.18,27
1124,553.67,21
1125,554.15,30
1126,554.63,21
1127,555.11,24
1128,555.59,31
1129,556.08,25
1130,556.56,25
1131,557.04,23
1132,557.52,32
1133,558.0,21
1134,558.48,29
1135,558.97,32
1136,559.45,25
1137,559.93,28
1138,560.41,31
1139,560.89,28
1140,561.38,30
1141,561.86,22
1142,562.34,22
1143,562.82,24
1144,563.3,27
1145,563.79,20
1146,564.27,24
1147,564.75,31
1148,565.23,21
1149,565.71,27
1150,566.2,24
1151,566.68,24
1152,567.16,22
1153,567.64,26
1154,568.12,29
1155,568.6,20
1156,569.09,30
1157,569.57,32
1158,570.05,35
1159,570.53,20
1160,571.01,15
1161,571.5,16
1162,571.98,29
1163,572.46,22
1164,572.94,30
1165,573.42,21
1166,573.91,30
1167,574.39,25
1168,574.87,24
1169,575.35,24
1170,575.83,22
1171,576.31,14
1172,576.8,27
1173,577.28,33
1174,577.76,25
1175,578.24,21
1176,578.72,22
1177,579.21,25
1178,579.69,27
1179,580.17,22
1180,580.65,21
1181,581.13,27
1182,581.62,27
1183,582.1,41
1184,582.58,29
1185,583.06,33
1186,583.54,40
1187,584.03,25
1188,584.51,28
1189,584.99,17
1190,585.47,23
1191,585.95,21
1192,586.43,25
1193,586.92,27
1194,587.4,30
1195,587.88,24
1196,588.36,21
1197,588.84,18
1198,589.33,23
1199,589.81,16
1200,590.29,28
1201,590.77,20
1202,591.25,18
1203,591.74,21
1204,592.22,30
1205,592.7,31
1206,593.18,17
1207,593.66,19
1208,594.15,23
1209,594.63,32
1210,595.11,25
1211,595.59,16
1212,596.07,31
1213,596.55,28
1214,597.04,22
1215,597.52,18
1216,598.0,25
1217,598.48,24
1218,598.96,23
1219,599.45,23
1220,599.93,29
1221,600.41,31
1222,600.89,28
1223,601.37,24
1224,601.86,18
1225,602.34,32
1226,602.82,21
1227,603.3,24
1228,603.78,23
1229,604.27,31
1230,604.75,23
1231,605.23,25
1232,605.71,23
1233,606.19,24
1234,606.67,24
1235,607.16,22
1236,607.64,20
1237,608.12,29
1238,608.6,37
1239,609.08,43
1240,609.57,42
1241,610.05,41
1242,610.53,23
1243,611.01,31
1244,611.49,22
1245,611.98,25
1246,612.46,25
1247,612.94,19
1248,613.42,23
1249,613.9,24
1250,614.39,16
1251,614.87,27
1252,615.35,23
1253,615.83,24
1254,616.31,22
1255,616.79,25
1256,617.28,19
1257,617.76,32
1258,618.24,31
1259,618.72,17
1260,619.2,19
1261,619.69,27
1262,620.17,25
1263,620.65,21
1264,621.13,24
1265,621.61,28
1266,622.1,33
1267,622.58,20
1268,623.06,18
1269,623.54,28
1270,624.02,20
1271,624.5,27
1272,624.99,22
1273,625.47,23
1274,625.95,23
1275,626.43,23
1276,626.91,25
1277,627.4,23
1278,627.88,30
1279,628.36,18
1280,628.84,21
1281,629.32,23
1282,629.81,22
1283,630.29,25
1284,630.77,24
1285,631.25,30
1286,631.73,16
1287,632.22,21
1288,632.7,28
1289,633.18,19
1290,633.66,23
1291,634.14,13
1292,634.62,24
1293,635.11,17
1294,635.59,16
1295,636.07,14
1296,636.55,23
1297,637.03,30
1298,637.52,17
1299,638.0,23
1300,638.48,19
1301,638.96,22
1302,639.44,25
1303,639.93,19
1304,640.41,17
1305,640.89,31
1306,641.37,24
1307,641.85,25
1308,642.34,31
1309,642.82,28
1310,643.3,23
1311,643.78,22
1312,644.26,25
1313,644.74,34
1314,645.23,19
1315,645.71,16
1316,646.19,17
1317,646.67,26
1318,647.15,17
1319,647.64,22
1320,648.12,16
1321,648.6,25
1322,649.08,16
1323,649.56,25
1324,650.05,23
1325,650.53,15
1326,651.01,27
1327,651.49,24
1328,651.97,23
1329,652.46,21
1330,652.94,26
1331,653.42,23
1332,653.9,26
1333,654.38,18
1334,654.86,25
1335,655.35,17
1336,655.83,17
1337,656.31,25
1338,656.79,17
1339,657.27,27
1340,657.76,22
1341,658.24,20
1342,658.72,19
1343,659.2,20
1344,659.68,24
1345,660.17,14
1346,660.65,17
1347,661.13,19
1348,661.61,31
1349,662.09,25
1350,662.58,17
1351,663.06,20
1352,663.54,22
1353,664.02,19
1354,664.5,16
1355,664.98,24
1356,665.47,23
1357,665.95,24
1358,666.43,22
1359,666.91,18
1360,667.39,28
1361,667.88,20
1362,668.36,21
1363,668.84,22
1364,669.32,16
1365,669.8,22
1366,670.29,26
1367,670.77,23
1368,671.25,22
1369,671.73,23
1370,672.21,20
1371,672.69,16
1372,673.18,21
1373,673.66,26
1374,674.14,15
1375,674.62,24
1376,675.1,17
1377,675.59,26
1378,676.07,25
1379,676.55,20
1380,677.03,15
1381,677.51,18
1382,678.0,22
1383,678.48,34
1384,678.96,24
1385,679.44,20
1386,679.92,20
1387,680.41,22
1388,680.89,23
1389,681.37,18
1390,681.85,13
1391,682.33,17
1392,682.81,27
1393,683.3,28
1394,683.78,19
1395,684.26,27
