Canal,Energía (keV),Cuentas,Eficiencia
1,12.49,3,0.001104480066076136
2,12.97,5,0.001104480066076136
3,13.46,1,0.001104480066076136
4,13.94,4,0.001104480066076136
5,14.42,2,0.001104480066076136
6,14.9,4,0.001104480066076136
7,15.38,4,0.001104480066076136
8,15.87,1,0.001104480066076136
9,16.35,4,0.001104480066076136
10,16.83,0,0.001104480066076136
11,17.31,12,0.001104480066076136
12,17.79,78,0.001104480066076136
13,18.27,241,0.001104480066076136
14,18.76,279,0.001104480066076136
15,19.24,461,0.001104480066076136
16,19.72,709,0.001104480066076136
17,20.2,961,0.001104480066076136
18,20.68,1119,0.001104480066076136
19,21.17,883,0.001104480066076136
20,21.65,633,0.001104480066076136
21,22.13,416,0.001104480066076136
22,22.61,342,0.001104480066076136
23,23.09,243,0.001104480066076136
24,23.58,261,0.001104480066076136
25,24.06,247,0.001104480066076136
26,24.54,258,0.001104480066076136
27,25.02,229,0.001104480066076136
28,25.5,222,0.001104480066076136
29,25.99,238,0.001104480066076136
30,26.47,179,0.001104480066076136
31,26.95,201,0.001104480066076136
32,27.43,187,0.001104480066076136
33,27.91,186,0.001104480066076136
34,28.39,149,0.001104480066076136
35,28.88,144,0.001104480066076136
36,29.36,182,0.001104480066076136
37,29.84,172,0.001104480066076136
38,30.32,186,0.0011915207684960627
39,30.8,186,0.0013302263015158816
40,31.29,194,0.0014820312749125443
41,31.77,177,0.001640841899967754
42,32.25,196,0.0018097105085060272
43,32.73,153,0.001988652760783919
44,33.21,168,0.0021776427275465964
45,33.7,161,0.002380864471512305
46,34.18,173,0.002589914896921741
47,34.66,163,0.0028086929197122636
48,35.14,182,0.0030370175396076796
49,35.62,191,0.00327467351570283
50,36.11,181,0.0035266485592631474
51,36.59,179,0.003782375604603964
52,37.07,183,0.004046598022697148
53,37.55,150,0.004318985468221163
54,38.03,191,0.004599185024915067
55,38.51,174,0.004886823693040604
56,39.0,188,0.00518772225565339
57,39.48,173,0.005489186170806051
58,39.96,174,0.005796865511060108
59,40.44,209,0.006110331189754396
60,40.92,176,0.0064291460334952675
61,41.41,178,0.006759660116673169
62,41.89,171,0.0070879283324554
63,42.37,171,0.007420197570142135
64,42.85,201,0.007756019057760981
65,43.33,202,0.00809494579150057
66,43.82,176,0.008443675728199
67,44.3,189,0.00878752867197389
68,44.78,169,0.009133163099554897
69,45.26,199,0.009480154217220153
70,45.74,199,0.009828085903039225
71,46.22,240,0.010176551724366677
72,46.71,283,0.010532417124372718
73,47.19,228,0.010880765959409231
74,47.67,193,0.01122848864894912
75,48.15,173,0.011575225765781556
76,48.63,199,0.011920631059636082
77,49.12,200,0.012271513120454988
78,49.6,185,0.012613226055263011
79,50.08,198,0.012952644908226722
80,50.56,200,0.013289479659991152
81,51.04,186,0.013623454698899027
82,51.53,226,0.013961166670443469
83,52.01,204,0.014288580509946434
84,52.49,207,0.014612389609666683
85,52.97,213,0.01493237606517933
86,53.45,215,0.015248336013520655
87,53.94,193,0.01556652795408782
88,54.42,189,0.015873785085636465
89,54.9,187,0.01617648285343052
90,55.38,173,0.01647447141296298
91,55.86,197,0.016767613602324496
92,56.34,194,0.017055784597582634
93,56.83,144,0.01734471438911012
94,57.31,212,0.0176225070335146
95,57.79,200,0.01789502260142978
96,58.27,199,0.01816218210460372
97,58.75,198,0.018423916966288437
98,59.24,192,0.018685448518338987
99,59.72,190,0.018936052277461014
100,60.2,186,0.019181083340583847
101,60.68,196,0.019420510892517086
102,61.16,190,0.019654312491371045
103,61.65,209,0.019887166986113182
104,62.13,223,0.02010956317979022
105,62.61,397,0.0203263124444116
106,63.09,608,0.02053742202837539
107,63.57,561,0.02074290560775573
108,64.06,285,0.02094688758926142
109,64.54,202,0.02114106812421738
110,65.02,214,0.021329699339332132
111,65.5,226,0.021512817163400796
112,65.98,188,0.021690462214758226
113,66.46,210,0.021862679485225446
114,66.95,202,0.02203293701428548
115,67.43,244,0.022194339307028174
116,67.91,218,0.022350473242614445
117,68.39,185,0.022501398423491723
118,68.87,206,0.02264717740020915
119,69.36,209,0.02279075308018812
120,69.84,215,0.022926334138688474
121,70.32,226,0.02305697334892502
122,70.8,203,0.02318274268240511
123,71.28,210,0.023303715900781126
124,71.77,216,0.02342234063033548
125,72.25,222,0.023533853148290693
126,72.73,251,0.023640801260549967
127,73.21,275,0.023743264004415194
128,73.69,210,0.023841321298225825
129,74.18,242,0.023936961140055665
130,74.66,271,0.0240263625113601
131,75.14,276,0.024111603682441966
132,75.62,218,0.024192766645445552
133,76.1,233,0.024269933583427918
134,76.58,275,0.024343186756113196
135,77.07,304,0.02441401452186047
136,77.55,256,0.02447960947887044
137,78.03,210,0.024541538574165248
138,78.51,216,0.024599883361382708
139,78.99,235,0.024654724998480343
140,79.48,233,0.024707179586479906
141,79.96,218,0.02475518765757361
142,80.44,218,0.024799934598138555
143,80.92,245,0.024841499265006305
144,81.4,221,0.024879959791889703
145,81.89,222,0.0249161001057307
146,82.37,217,0.024948522956923215
147,82.85,206,0.02497807281279194
148,83.33,240,0.02500482443124937
149,83.81,260,0.025028851634329274
150,84.3,254,0.025050644923692834
151,84.78,217,0.025069387879817315
152,85.26,238,0.02508562344217458
153,85.74,216,0.025099421389160964
154,86.22,251,0.0251108504390477
155,86.7,228,0.025119978233839622
156,87.19,269,0.02512699163928049
157,87.67,259,0.025131670973911422
158,88.15,231,0.025134246724923964
159,88.63,223,0.025134782091559223
160,89.11,200,0.025133339150154935
161,89.6,248,0.025129888886476656
162,90.08,253,0.02512463298072267
163,90.56,224,0.025117579444126147
164,91.04,221,0.025108785820712805
165,91.52,327,0.025098308530638012
166,92.01,554,0.025085933747567107
167,92.49,705,0.025072221683173957
168,92.97,549,0.025056989609270986
169,93.45,322,0.025040289479062793
170,93.93,217,0.02502217215298612
171,94.41,242,0.025002687407749406
172,94.9,216,0.024981436861008236
173,95.38,225,0.024959336340818795
174,95.86,240,0.024936012290514058
175,96.34,230,0.024911510235435464
176,96.82,257,0.02488587467307663
177,97.31,240,0.02485858101785944
178,97.79,244,0.02483078650715948
179,98.27,239,0.02480198679849529
180,98.75,253,0.024772222389650253
181,99.23,284,0.024741532818576075
182,99.72,227,0.02470928968543789
183,100.2,222,0.024676847345164184
184,100.68,261,0.02464359359896792
185,101.16,192,0.024609564273404962
186,101.64,246,0.02457479430963095
187,102.13,222,0.024538571410215194
188,102.61,214,0.024502407847038075
189,103.09,254,0.024465603974840325
190,103.57,241,0.024428191328823665
191,104.05,222,0.024390200635560605
192,104.53,253,0.024351661828301244
193,105.02,266,0.024311785045018294
194,105.5,240,0.02427222678881217
195,105.98,235,0.024232206178685597
196,106.46,200,0.02419175011129934
197,106.94,256,0.024150884765792194
198,107.43,252,0.02410877235885701
199,107.91,257,0.024067156977552226
200,108.39,234,0.024025207193012717
201,108.87,237,0.023982946447316092
202,109.35,268,0.023940397537906118
203,109.84,221,0.023896687981339794
204,110.32,249,0.023853623760599175
205,110.8,259,0.0238103364704886
206,111.28,229,0.023766846456637927
207,111.76,241,0.023723173488848667
208,112.25,275,0.023678421902715158
209,112.73,282,0.02363443727052194
210,113.21,223,0.02359032604123961
211,113.69,217,0.023546105800098197
212,114.17,180,0.023501793620532837
213,114.65,234,0.023457406076326365
214,115.14,258,0.02341203276037268
215,115.62,224,0.02336754152202828
216,116.1,263,0.02332302207156419
217,116.58,231,0.02327848909219824
218,117.06,234,0.02323395682538587
219,117.55,237,0.0231885118797908
220,118.03,255,0.023144022770639833
221,118.51,254,0.023099574821951505
222,118.99,257,0.023055180606886157
223,119.47,209,0.023010852309534695
224,119.96,232,0.02296568075683853
225,120.44,257,0.022921521316540686
226,120.92,249,0.0228774623365678
227,121.4,233,0.02283351453434336
228,121.88,211,0.02278968828584596
229,122.37,232,0.02274508479881074
230,122.85,238,0.02270153450941216
231,123.33,222,0.02265813513369999
232,123.81,213,0.022614895762693713
233,124.29,240,0.022571825188772852
234,124.77,215,0.022528931913650668
235,125.26,234,0.02248533644133195
236,125.74,242,0.022442826258067976
237,126.22,208,0.022400517368954972
238,126.7,251,0.022358417183925162
239,127.18,216,0.022316532859654774
240,127.67,209,0.02227400577456292
241,128.15,225,0.0222325785126934
242,128.63,232,0.022191387262454072
243,129.11,222,0.02215043823073193
244,129.59,230,0.022109737404452812
245,130.08,231,0.02206845065502526
246,130.56,225,0.022028268816104535
247,131.04,215,0.021988351994168282
248,131.52,238,0.02194870535246452
249,132.0,239,0.02190933386378818
250,132.49,226,0.02186943091881245
251,132.97,239,0.021830629895765886
252,133.45,223,0.02179211794587669
253,133.93,249,0.02175389932991253
254,134.41,227,0.021715978144268275
255,134.89,239,0.0216783583257972
256,135.38,215,0.021640269538683178
257,135.86,225,0.02160327012077418
258,136.34,230,0.021566583040772882
259,136.82,205,0.021530211640235067
260,137.3,214,0.021494159123589124
261,137.79,221,0.02145768762043913
262,138.27,214,0.02142228875598872
263,138.75,230,0.021387217664137446
264,139.23,223,0.02135247703860053
265,139.71,213,0.021318069455682757
266,140.2,238,0.02128329112763207
267,140.68,231,0.02124956397016796
268,141.16,253,0.021216176961213275
269,141.64,190,0.02118313224064198
270,142.12,195,0.021150431848206894
271,142.6,197,0.021118077726716866
272,143.09,250,0.02108540864798574
273,143.57,236,0.021053759831641736
274,144.05,215,0.021022462597468882
275,144.53,204,0.020991518528926625
276,145.01,226,0.020960929127280464
277,145.5,186,0.020930069749928948
278,145.98,196,0.020900201330867597
279,146.46,214,0.020870691641755045
280,146.94,205,0.020841541879972295
281,147.42,211,0.020812753173601553
282,147.91,184,0.02078373822103191
283,148.39,223,0.02075568231923761
284,148.87,201,0.020727990483380497
285,149.35,194,0.02070066358609038
286,149.83,200,0.020673702441942558
287,150.32,214,0.020646557657172028
288,150.8,229,0.02062033789848182
289,151.28,183,0.020594486021673925
290,151.76,227,0.0205690026281124
291,152.24,166,0.020543888270903293
292,152.72,183,0.02051914345668695
293,153.21,198,0.020494264776442152
294,153.69,195,0.020470268112264142
295,154.17,198,0.02044664225685818
296,154.65,212,0.02042338754717261
297,155.13,184,0.020400504281983516
298,155.62,206,0.02037752768690777
299,156.1,212,0.020355395812691152
300,156.58,194,0.02033363606891606
301,157.06,191,0.02031224861577691
302,157.54,216,0.020291233582499093
303,158.03,193,0.0202701649781023
304,158.51,153,0.020249902817784604
305,158.99,194,0.0202300132928512
306,159.47,181,0.02021049642095553
307,159.95,209,0.020191352195035445
308,160.44,189,0.02017219347117601
309,160.92,189,0.0201538021838641
310,161.4,189,0.020135783382579635
311,161.88,212,0.020118136972114214
312,162.36,174,0.02010086283797017
313,162.84,182,0.02008396084734675
314,163.33,185,0.02006709042965877
315,163.81,187,0.02005094000376616
316,164.29,202,0.020035161218718667
317,164.77,177,0.020019753877564713
318,165.25,178,0.02000471776961003
319,165.74,188,0.019989751091900865
320,166.22,183,0.019549862140693642
321,166.7,168,0.019492432003543725
322,167.18,168,0.01943533940449181
323,167.66,203,0.019378581386542446
324,168.15,188,0.019320982983887017
325,168.63,175,0.01926489221292616
326,169.11,183,0.019209127297034105
327,169.59,166,0.019153685414329644
328,170.07,154,0.019098563775332342
329,170.56,169,0.019042621225780723
330,171.04,167,0.018988138361790363
331,171.52,165,0.018933967507062215
332,172.0,161,0.01888010599780193
333,172.48,182,0.018826551200370675
334,172.96,169,0.018773300510860423
335,173.45,176,0.01871925143538001
336,173.93,174,0.018666607468874035
337,174.41,199,0.01861425992066811
338,174.89,162,0.018562206302252988
339,175.37,162,0.018510444152823293
340,175.86,196,0.018457901738580022
341,176.34,173,0.018406721199645884
342,176.82,169,0.018355824860396518
343,177.3,150,0.018305210367610462
344,177.78,165,0.018254875393906616
345,178.27,169,0.018203777698950777
346,178.75,174,0.01815400058676378
347,179.23,163,0.018104496116402007
348,179.71,172,0.01805526206087891
349,180.19,191,0.018006296217333045
350,180.68,160,0.017956584640742533
351,181.16,170,0.017908154182135455
352,181.64,159,0.017859985424264747
353,182.12,159,0.017812076258042275
354,182.6,156,0.017764424596924382
355,183.08,180,0.017717028376611828
356,183.57,162,0.017668906092679394
357,184.05,159,0.017622019864290527
358,184.53,192,0.017575382972922163
359,185.01,276,0.01752899344078533
360,185.49,357,0.01748284931090057
361,185.98,276,0.017435994958167365
362,186.46,188,0.01739034085577973
363,186.94,165,0.017344926367566266
364,187.42,150,0.01729974961751156
365,187.9,173,0.01725480874908397
366,188.39,137,0.01720917300851023
367,188.87,149,0.017164703229263376
368,189.35,134,0.01712046383915936
369,189.83,158,0.017076453057505228
370,190.31,136,0.01703266912186603
371,190.79,166,0.01698911028783205
372,191.28,133,0.016944874369751756
373,191.76,164,0.01690176517664767
374,192.24,142,0.016858875922732847
375,192.72,146,0.016816204933793075
376,193.2,135,0.0167737505525221
377,193.69,139,0.016730633424741716
378,194.17,146,0.016688611780952774
379,194.65,152,0.016646801838927028
380,195.13,149,0.016605202007229265
381,195.61,148,0.016563810710296906
382,196.1,137,0.01652177057134883
383,196.58,138,0.01648079594325658
384,197.06,161,0.01644002518482685
385,197.54,152,0.016399456782359018
386,198.02,168,0.016359089237064806
387,198.51,161,0.016318086337483856
388,198.99,139,0.01627812017637908
389,199.47,137,0.01623835043357884
390,199.95,123,0.016198775668436506
391,200.43,146,0.01615939445432654
392,200.91,158,0.01612020537847441
393,201.4,138,0.016080396594752782
394,201.88,131,0.016041591541891623
395,202.36,133,0.016002974441962782
396,202.84,116,0.0159645439362196
397,203.32,121,0.015926298678950127
398,203.81,126,0.01588744633892627
399,204.29,134,0.015849571382957412
400,204.77,159,0.015811877687881563
401,205.25,156,0.015774363958848407
402,205.73,144,0.01573702891328304
403,206.22,142,0.015699099040914384
404,206.7,139,0.015662121219528237
405,207.18,135,0.015625318280252064
406,207.66,127,0.015588688988426257
407,208.14,165,0.01555223212095935
408,208.63,154,0.015515192327055678
409,209.11,137,0.015479080213872549
410,209.59,130,0.015443136899186981
411,210.07,136,0.015407361205078641
412,210.55,141,0.015371751964536794
413,211.03,142,0.015336308021334417
414,211.52,156,0.015300294971638302
415,212.0,126,0.015265181581137493
416,212.48,124,0.015230230059445862
417,212.96,112,0.015195439292461012
418,213.44,110,0.015160808176258391
419,213.93,126,0.01512561911691932
420,214.41,110,0.015091307299873773
421,214.89,139,0.015057151859481217
422,215.37,146,0.015023151731587915
423,215.85,121,0.014989305861652447
424,216.34,115,0.014954912896065787
425,216.82,126,0.01492137557574601
426,217.3,144,0.0148879893850757
427,217.78,138,0.014854753307086403
428,218.26,137,0.014821666333893655
429,218.75,136,0.014788042807997755
430,219.23,110,0.014755254111026569
431,219.71,113,0.014722611528349356
432,220.19,103,0.014690114087600669
433,220.67,123,0.014657760825005172
434,221.15,110,0.014625550785283234
435,221.64,138,0.014592816449326708
436,222.12,118,0.014560892957638742
437,222.6,112,0.01452910985373722
438,223.08,127,0.014497466215573143
439,223.56,118,0.014465961129137114
440,224.05,95,0.014433941657255471
441,224.53,121,0.014402713803381192
442,225.01,111,0.014371621788109246
443,225.49,113,0.014340664728886694
444,225.97,116,0.014309841750773114
445,226.46,112,0.01427851402664622
446,226.94,120,0.014247959364250452
447,227.42,115,0.014217536185321657
448,227.9,121,0.014187243644714012
449,228.38,109,0.014157080904494149
450,228.87,105,0.014126422795818619
451,229.35,127,0.014096519832038492
452,229.83,118,0.014066744180418072
453,230.31,102,0.014037095031260723
454,230.79,125,0.014007571581707227
455,231.27,102,0.013978173035663859
456,231.76,122,0.013948290033904097
457,232.24,106,0.013919141494433965
458,232.72,135,0.013890115493978339
459,233.2,130,0.013861211262938931
460,233.68,99,0.013832428038135267
461,234.17,130,0.013803169190724187
462,234.65,111,0.013774628195813297
463,235.13,94,0.013746205940000998
464,235.61,116,0.013717901685247778
465,236.09,126,0.01368971469960573
466,236.58,107,0.013661060690387031
467,237.06,115,0.013633108476547886
468,237.54,129,0.013605271357089166
469,238.02,135,0.013577548623931549
470,238.5,152,0.013549939574780543
471,238.98,148,0.013522443513067615
472,239.47,111,0.01349449044199113
473,239.95,98,0.013467220606049386
474,240.43,117,0.01344006168751517
475,240.91,93,0.013413013012263166
476,241.39,112,0.013386073911609142
477,241.88,110,0.013358685913382642
478,242.36,118,0.013331966225682194
479,242.84,114,0.013305354125087532
480,243.32,103,0.01327884896424649
481,243.8,102,0.013252450100979746
482,244.29,94,0.013225610242196685
483,244.77,100,0.01319942424938589
484,245.25,88,0.013173342645128766
485,245.73,94,0.013147364807532182
486,246.21,105,0.013121490119623554
487,246.7,105,0.013095182135497575
488,247.18,86,0.013069514032612235
489,247.66,102,0.013043947245036677
490,248.14,95,0.013018481175099366
491,248.62,94,0.012993115229811558
492,249.1,103,0.012967848820821505
493,249.59,97,0.012942158090432943
494,250.07,93,0.012917091050623825
495,250.55,120,0.012892121797505263
496,251.03,106,0.012867249760919897
497,251.51,91,0.012842474375125888
498,252.0,100,0.012817281944533212
499,252.48,102,0.012792700164911516
500,252.96,71,0.01276821335345509
501,253.44,92,0.01274382096175128
502,253.92,86,0.012719522445593994
503,254.41,99,0.01269481397900067
504,254.89,73,0.012670703525599349
505,255.37,91,0.012646685328929541
506,255.85,74,0.0126227588612979
507,256.33,99,0.012598923599020586
508,256.82,104,0.01257468530432591
509,257.3,79,0.01255103277063566
510,257.78,98,0.012527469884303697
511,258.26,109,0.01250399613738824
512,258.74,98,0.012480611025770718
513,259.22,98,0.01245731404911972
514,259.71,86,0.012433622111356964
515,260.19,82,0.012410501728934315
516,260.67,81,0.012387467992702737
517,261.15,98,0.012364520417204974
518,261.63,100,0.012341658520597008
519,262.12,86,0.012318408212704603
520,262.6,91,0.012295718002730318
521,263.08,94,0.012273112037680459
522,263.56,72,0.012250589849904792
523,264.04,106,0.012228150975201814
524,264.53,82,0.012205330080062705
525,265.01,74,0.012183058164258024
526,265.49,85,0.012160868179875058
527,265.97,93,0.012138759676262788
528,266.45,91,0.012116732206063312
529,266.94,88,0.012094328952294306
530,267.42,96,0.012072463884964014
531,267.9,75,0.012050678519349201
532,268.38,90,0.012028972421033722
533,268.86,85,0.012007345158747202
534,269.34,89,0.011985796304336709
535,269.83,88,0.011963878949129998
536,270.31,97,0.011942487249727199
537,270.79,81,0.011921172683470815
538,271.27,105,0.011899934834462347
539,271.75,94,0.011878773289782804
540,272.24,96,0.011857249159200226
541,272.72,78,0.011836240564552045
542,273.2,73,0.011815307044699448
543,273.68,80,0.011794448198437986
544,274.16,72,0.011773663627412015
545,274.65,88,0.011752522246148738
546,275.13,80,0.011731886568618491
547,275.61,92,0.011711323980004032
548,276.09,78,0.011690834093152656
549,276.57,72,0.011670416523636378
550,277.06,71,0.011649647784575832
551,277.54,88,0.01162937519397671
552,278.02,81,0.011609173775727438
553,278.5,74,0.011589043156117864
554,278.98,78,0.011568982964045387
555,279.46,86,0.011548992830992066
556,279.95,74,0.011528658120322126
557,280.43,78,0.01150880845050192
558,280.91,72,0.011489027741940591
559,281.39,72,0.011469315636289076
560,281.87,82,0.011449671777672777
561,282.36,92,0.011429688699506706
562,282.84,63,0.011410181680551724
563,283.32,83,0.011390741848406561
564,283.8,88,0.011371368856933364
565,284.28,78,0.011352062362363951
566,284.77,76,0.011332421883925454
567,285.25,83,0.011313248728823043
568,285.73,97,0.011294141046345466
569,286.21,84,0.011275098502050981
570,286.69,77,0.011256120763768114
571,287.17,71,0.01123720750157646
