Canal,Energía (keV),Cuentas,Eficiencia
1,11.99,2,0.001104480066076136
2,12.48,4,0.001104480066076136
3,12.96,3,0.001104480066076136
4,13.44,3,0.001104480066076136
5,13.92,3,0.001104480066076136
6,14.41,2,0.001104480066076136
7,14.89,1,0.001104480066076136
8,15.37,2,0.001104480066076136
9,15.86,0,0.001104480066076136
10,16.34,1,0.001104480066076136
11,16.82,9,0.001104480066076136
12,17.31,79,0.001104480066076136
13,17.79,223,0.001104480066076136
14,18.27,307,0.001104480066076136
15,18.75,413,0.001104480066076136
16,19.24,593,0.001104480066076136
17,19.72,800,0.001104480066076136
18,20.2,791,0.001104480066076136
19,20.69,713,0.001104480066076136
20,21.17,424,0.001104480066076136
21,21.65,318,0.001104480066076136
22,22.14,291,0.001104480066076136
23,22.62,240,0.001104480066076136
24,23.1,243,0.001104480066076136
25,23.58,223,0.001104480066076136
26,24.07,228,0.001104480066076136
27,24.55,196,0.001104480066076136
28,25.03,235,0.001104480066076136
29,25.52,175,0.001104480066076136
30,26.0,205,0.001104480066076136
31,26.48,184,0.001104480066076136
32,26.97,185,0.001104480066076136
33,27.45,168,0.001104480066076136
34,27.93,191,0.001104480066076136
35,28.41,174,0.001104480066076136
36,28.9,186,0.001104480066076136
37,29.38,194,0.001104480066076136
38,29.86,191,0.001104480066076136
39,30.35,171,0.0011999023963031432
40,30.83,159,0.001339222764579962
41,31.31,167,0.0014884481835943954
42,31.8,158,0.0016511011469783708
43,32.28,185,0.0018205993345531324
44,32.76,149,0.002000170755995373
45,33.24,186,0.002189786909401944
46,33.73,184,0.00239364220766755
47,34.21,174,0.002603305235165947
48,34.69,170,0.002822685588471135
49,35.18,172,0.00305646900381792
50,35.66,172,0.003294891854367622
51,36.14,185,0.0035423767020168477
52,36.63,217,0.0038040740609359266
53,37.11,173,0.004068989843053084
54,37.59,179,0.00434204207073327
55,38.07,158,0.004622876059026439
56,38.56,208,0.004917198257657478
57,39.04,163,0.005212596558548212
58,39.52,164,0.005514594577205539
59,40.01,180,0.005829255656274688
60,40.49,170,0.006143299056185132
61,40.97,164,0.006462645705807238
62,41.46,153,0.006793654801502942
63,41.94,190,0.007122360744792166
64,42.42,181,0.0074550209306839905
65,42.9,200,0.0077911866923430495
66,43.39,183,0.008137507829257904
67,43.87,189,0.008479397930961355
68,44.35,189,0.00882345649803366
69,44.84,186,0.009176471416768622
70,45.32,212,0.009523602672728702
71,45.8,236,0.009871623143255698
72,46.29,283,0.010227390486005515
73,46.77,212,0.010575982371333224
74,47.25,178,0.010924273033120572
75,47.74,184,0.011279124247134212
76,48.22,181,0.011625688386250752
77,48.7,191,0.011970871333757887
78,49.18,200,0.01231434242979294
79,49.67,194,0.012662874577834002
80,50.15,161,0.01300193430399539
81,50.63,193,0.013338368836763079
82,51.12,184,0.013678820628216803
83,51.6,214,0.014009130258460456
84,52.08,225,0.014336032523928222
85,52.57,206,0.014665991825323953
86,53.05,206,0.01498532097710951
87,53.53,188,0.015300590995574735
88,54.01,177,0.01561161413307218
89,54.5,181,0.01592455554212785
90,54.98,176,0.01622647850110325
91,55.46,199,0.016523668519841155
92,55.95,168,0.01682202789303326
93,56.43,185,0.01710925387132081
94,56.91,196,0.017391375952456625
95,57.4,185,0.017674008194255072
96,57.88,211,0.017945525197285563
97,58.36,192,0.01821167249653843
98,58.84,207,0.018472383422423043
99,59.33,201,0.018732859506857977
100,59.81,220,0.01898242113111129
101,60.29,209,0.019226403625177822
102,60.78,201,0.019469684101311818
103,61.26,205,0.019702311547946258
104,61.74,242,0.019929296526011945
105,62.23,398,0.020155184810109816
106,62.71,615,0.02037075832452001
107,63.19,500,0.020580694489649144
108,63.67,246,0.02078500827442768
109,64.16,233,0.02098780109342855
110,64.64,204,0.021180822799302508
111,65.12,210,0.021368302267851365
112,65.61,194,0.021554009308080494
113,66.09,216,0.021730406367062614
114,66.57,219,0.021901386539568222
115,67.06,208,0.022070393359403792
116,67.54,201,0.02223058321901357
117,68.02,205,0.022385518106468483
118,68.5,196,0.022535258322598707
119,68.99,233,0.022682825640366094
120,69.47,201,0.022822263908458755
121,69.95,243,0.022956706204031868
122,70.44,203,0.02308886938094682
123,70.92,226,0.023213432705041396
124,71.4,196,0.023333218610490238
125,71.89,244,0.02345065095755351
126,72.37,238,0.02356101501854752
127,72.85,218,0.023666834341834257
128,73.33,238,0.02376818819987441
129,73.82,274,0.023867130829437828
130,74.3,305,0.02395970597503588
131,74.78,269,0.024048059624462298
132,75.27,223,0.0241339845708423
133,75.75,252,0.02421405715699119
134,76.23,340,0.02429015599383517
135,76.72,306,0.02436382687109438
136,77.2,252,0.024432146449275393
137,77.68,237,0.024496740496612827
138,78.16,233,0.024557690804212672
139,78.65,245,0.024616237111226975
140,79.13,221,0.024670072217775545
141,79.61,197,0.024720508295254604
142,80.1,204,0.024768572198419513
143,80.58,220,0.024812382861174737
144,81.06,211,0.024853034116268106
145,81.55,220,0.024891354366354982
146,82.03,232,0.02492585798083699
147,82.51,246,0.024957435098956728
148,83.0,262,0.02498672979719561
149,83.48,271,0.025012622150603434
150,83.96,282,0.025035812961093844
151,84.44,255,0.025056374775769406
152,84.93,234,0.02507472754178561
153,85.41,247,0.025090193903087473
154,85.89,215,0.025103244238168287
155,86.38,236,0.02511414542325776
156,86.86,223,0.02512252097652909
157,87.34,236,0.02512868376649436
158,87.83,225,0.025132760145088928
159,88.31,216,0.025134648801200372
160,88.79,259,0.025134517890018658
161,89.27,262,0.025132429112747743
162,89.76,247,0.0251283402530935
163,90.24,239,0.025122478673776375
164,90.72,229,0.02511483877002903
165,91.21,332,0.025105264790026366
166,91.69,644,0.02509420452003742
167,92.17,762,0.025081535201593362
168,92.66,468,0.02506699812290265
169,93.14,280,0.025051240227291296
170,93.62,261,0.02503403241297386
171,94.1,247,0.025015425155483842
172,94.59,230,0.024995038064878607
173,95.07,217,0.024973752423489794
174,95.55,216,0.024951213298146743
175,96.04,221,0.024926959654994883
176,96.52,258,0.024902027374940416
177,97.0,219,0.02487597801176921
178,97.49,240,0.024848278484059322
179,97.97,226,0.024820102216766074
180,98.45,215,0.02479093605156521
181,98.93,235,0.024760820124629133
182,99.42,232,0.02472913782484522
183,99.9,234,0.02469722120595427
184,100.38,229,0.024664470333201217
185,100.87,225,0.024630214433673882
186,101.35,212,0.024595887809495787
187,101.83,226,0.024560834136733677
188,102.32,219,0.024524335281642683
189,102.8,232,0.024487914439659555
190,103.28,205,0.02445086586901361
191,103.76,221,0.024413220782984038
192,104.25,246,0.02437420771960902
193,104.73,257,0.024335449180471026
194,105.21,256,0.02429618360448035
195,105.7,267,0.024255606163416894
196,106.18,236,0.024215400885588115
197,106.66,241,0.024174771144821854
198,107.15,233,0.024132884012280007
199,107.63,216,0.024091474786620364
200,108.11,242,0.024049717179837265
201,108.59,262,0.024007635016600217
202,109.08,259,0.023964365435770324
203,109.56,226,0.023921697461852545
204,110.04,267,0.02387877299436559
205,110.53,225,0.023834711806169598
206,111.01,226,0.023791333355212673
207,111.49,274,0.023747760899877353
208,111.98,245,0.023703100849070142
209,112.46,247,0.023659195351862325
210,112.94,233,0.023615153136329756
211,113.42,221,0.023570992081010125
212,113.91,221,0.023525806452047732
213,114.39,240,0.023481457702726926
214,114.87,220,0.023437041021374297
215,115.36,246,0.02339164539969158
216,115.84,234,0.023347139379506873
217,116.32,211,0.02330261193255072
218,116.81,231,0.023257149765786106
219,117.29,226,0.023212622760749486
220,117.77,228,0.023168116746870648
221,118.26,247,0.02312271887631872
222,118.74,233,0.023078295130246607
223,119.22,216,0.023033931003945147
224,119.7,225,0.022989638498581776
225,120.19,224,0.022944509181118348
226,120.67,236,0.02290039651874846
227,121.15,225,0.02285638949531275
228,121.64,237,0.02281158558047363
229,122.12,250,0.02276782389556543
230,122.6,235,0.022724198707559148
231,123.09,224,0.022679815382062554
232,123.57,226,0.022636494891179623
233,124.05,248,0.022593338838021133
234,124.53,223,0.022550355868645018
235,125.02,242,0.022506664631672283
236,125.5,216,0.022464056661137526
237,125.98,246,0.02242164618260377
238,126.47,223,0.022378563687974414
239,126.95,236,0.02233657505313366
240,127.43,214,0.022294805908504307
241,127.92,227,0.022252400015867813
242,128.4,225,0.022211094888437394
243,128.88,200,0.022170029033221506
244,129.36,222,0.022129208541769384
245,129.85,283,0.022087796808643825
246,130.33,247,0.02204748986938835
247,130.81,220,0.02200744540393304
248,131.3,232,0.021966842870335825
249,131.78,211,0.02192734466449822
250,132.26,226,0.021888124227702057
251,132.75,216,0.021848378078108053
252,133.23,229,0.02180973309735796
253,133.71,208,0.021771379518378212
254,134.19,209,0.021733321512297777
255,134.68,243,0.02169477966820139
256,135.16,234,0.02165733104051097
257,135.64,242,0.021620189623031204
258,136.13,215,0.021582594988713403
259,136.61,214,0.021546085076129002
260,137.09,203,0.021509892662102247
261,137.58,173,0.021473276978021504
262,138.06,217,0.02143773559092202
263,138.54,209,0.021402520760049885
264,139.02,254,0.02136763523165682
265,139.51,220,0.021332365314149018
266,139.99,195,0.02129815315044134
267,140.47,188,0.02126427787719139
268,140.96,206,0.021230046737890584
269,141.44,195,0.02119685914360177
270,141.92,181,0.021164015039511232
271,142.41,229,0.021130843040964704
272,142.89,261,0.02109869902670779
273,143.37,255,0.0210669042052397
274,143.85,222,0.021035460281248006
275,144.34,197,0.02100372489527281
276,144.82,176,0.020972994930277322
277,145.3,196,0.020942620500506503
278,145.79,188,0.02091198142071717
279,146.27,203,0.020882329587221235
280,146.75,196,0.020853037215512436
281,147.24,173,0.02082350655851803
282,147.72,205,0.020794944054787302
283,148.2,210,0.020766744297838313
284,148.68,200,0.02073890824490361
285,149.17,191,0.020710868353388718
286,149.65,199,0.020683769959952622
287,150.13,201,0.020657037800199184
288,150.62,222,0.020630127230710414
289,151.1,193,0.020604137325072724
290,151.58,231,0.02057851568292539
291,152.07,201,0.020552740700997135
292,152.55,205,0.020527864951870187
293,153.03,192,0.020503359049066437
294,153.52,195,0.02047872454137946
295,154.0,205,0.020454967317312566
296,154.48,198,0.020431581124077135
297,154.96,199,0.02040856627378907
298,155.45,181,0.02038545526081927
299,155.93,184,0.020363191634859654
300,156.41,183,0.020341300074926016
301,156.9,188,0.0203193363925983
302,157.38,201,0.020298197206863426
303,157.86,178,0.020277430510593164
304,158.35,156,0.020256615468897638
305,158.83,173,0.020236601728955632
306,159.31,199,0.02021696063896806
307,159.79,168,0.020197692199984758
308,160.28,180,0.020178406688503174
309,160.76,194,0.020159891221503547
310,161.24,190,0.02014174826780705
311,161.73,180,0.020123611479009648
312,162.21,175,0.020106221021941168
313,162.69,209,0.020089202751799776
314,163.18,191,0.020072213682396204
315,163.66,162,0.020055947080632824
316,164.14,199,0.02004005217830829
317,164.62,178,0.020024528782944476
318,165.11,179,0.020009064966139765
319,165.59,168,0.019994291680475305
320,166.07,182,0.0195678787522311
321,166.56,163,0.019509147460597474
322,167.04,199,0.019451956719927457
323,167.52,207,0.01939510141924696
324,168.01,182,0.019337404582700835
325,168.49,174,0.019281218234408225
326,168.97,160,0.01922535857040377
327,169.45,182,0.019169822759267905
328,169.94,159,0.019113461088788707
329,170.42,177,0.019058571220603195
330,170.9,169,0.019003996847747492
331,171.39,170,0.018948608124165888
332,171.87,180,0.018894663095143968
333,172.35,192,0.018841025488274977
334,172.84,161,0.018786584814415603
335,173.32,173,0.01873356051468073
336,173.8,147,0.018680835836315607
337,174.28,171,0.018628408255040124
338,174.77,175,0.018575192285983984
339,175.25,191,0.01852335749850789
340,175.73,160,0.018471812352362817
341,176.22,177,0.018419489598163363
342,176.7,162,0.01836852243062454
343,177.18,144,0.018317837695417973
344,177.67,158,0.01826638592403816
345,178.15,167,0.018216264840581465
346,178.63,164,0.018166419217112963
347,179.11,172,0.01811684679602447
348,179.6,159,0.01806652109620505
349,180.08,180,0.018017493980735412
350,180.56,167,0.01796873339546429
351,181.05,157,0.01791922963748941
352,181.53,183,0.017871001093639715
353,182.01,183,0.017823032622768763
354,182.5,197,0.017774330893089385
355,182.98,160,0.017726881625090053
356,183.46,144,0.01767968617924019
357,183.94,159,0.01763274253036057
358,184.43,234,0.01758507852802827
359,184.91,325,0.017538637624788175
360,185.39,327,0.017492442529801634
361,185.88,228,0.01744553656455043
362,186.36,164,0.01739983230458858
363,186.84,170,0.017354368052113444
364,187.33,152,0.017308202234888274
365,187.81,157,0.01726321727918261
366,188.29,154,0.0172184667108447
367,188.78,156,0.017173023709705304
368,189.26,157,0.01712874125783012
369,189.74,161,0.017084687746886876
370,190.22,149,0.017040861411035193
371,190.71,176,0.01699635453494165
372,191.19,146,0.016952981965889007
373,191.67,143,0.016909831346413332
374,192.16,136,0.016866008929425014
375,192.64,154,0.01682330167853409
376,193.12,128,0.016780811310364553
377,193.61,154,0.0167376577267916
378,194.09,141,0.01669560064352699
379,194.57,115,0.016653755528821958
380,195.05,146,0.016612120788576462
381,195.54,154,0.0165698340131501
382,196.02,151,0.016528619603816085
383,196.5,146,0.016487610849224052
384,196.99,132,0.01644595828125407
385,197.47,168,0.016405360462243498
386,197.95,141,0.01636496371805815
387,198.44,178,0.016323931233557014
388,198.92,144,0.016283936306903654
389,199.4,147,0.016244138009830832
390,199.88,140,0.016204534899632896
391,200.37,143,0.01616430656968861
392,200.85,128,0.016125093553346046
393,201.33,139,0.01608607145031425
394,201.82,139,0.016046431866815276
395,202.3,134,0.01600779134734539
396,202.78,129,0.015969337591188418
397,203.27,136,0.01593027395599801
398,203.75,141,0.01589219351830086
399,204.23,158,0.015854295813059163
400,204.71,137,0.015816579531437124
401,205.2,136,0.015778263280019213
402,205.68,127,0.01574090968107608
403,206.16,134,0.015703733626932382
404,206.65,123,0.01566596489496783
405,207.13,106,0.01562914379661183
406,207.61,126,0.015592496473774448
407,208.1,132,0.015555263637237568
408,208.58,136,0.01551896376074843
409,209.06,131,0.015482833996203807
410,209.54,144,0.01544687315348927
411,210.03,139,0.015410336139295202
412,210.51,141,0.015374713071932167
413,210.99,143,0.015339255397852017
414,211.48,156,0.015303228429262978
415,211.96,143,0.015268101499083506
416,212.44,121,0.01523313653101818
417,212.93,137,0.015197609026725076
418,213.41,132,0.015162967964499114
419,213.89,148,0.015128485527266663
420,214.37,125,0.015094160630494709
421,214.86,132,0.015059282013341767
422,215.34,109,0.015025272209411219
423,215.82,133,0.01499141672906782
424,216.31,125,0.014957014019937117
425,216.79,132,0.014923467220038565
426,217.27,110,0.01489007161365397
427,217.76,120,0.014856135159794196
428,218.24,136,0.014823041993906839
429,218.72,139,0.014790096975357407
430,219.2,109,0.014757299113759543
431,219.69,111,0.014723968731450437
432,220.17,143,0.014691465262422685
433,220.65,106,0.01465910601153515
434,221.14,125,0.014626220373339702
435,221.62,124,0.014594149655132501
436,222.1,111,0.014562220293823935
437,222.59,116,0.014529770576046777
438,223.07,112,0.014498124041696859
439,223.55,129,0.0144666160780354
440,224.04,143,0.014434593688372051
441,224.52,130,0.01440336299508713
442,225.0,118,0.01437226815887261
443,225.48,110,0.014341308297016053
444,225.97,117,0.014309841750773114
445,226.45,101,0.014279151986359092
446,226.93,115,0.014248594575685329
447,227.42,102,0.014217536185321657
448,227.9,108,0.014187243644714012
449,228.38,121,0.014157080904494149
450,228.87,112,0.014126422795818619
451,229.35,115,0.014096519832038492
452,229.83,110,0.014066744180418072
453,230.31,119,0.014037095031260723
454,230.8,106,0.014006957840776789
455,231.28,120,0.013977561888472531
456,231.76,106,0.013948290033904097
457,232.25,109,0.013918535538917856
458,232.73,104,0.013889512083152342
459,233.21,131,0.013860610380838195
460,233.7,113,0.013831231351905232
461,234.18,108,0.013802573370568942
462,234.66,132,0.013774034856958344
463,235.14,106,0.013745615067007935
464,235.63,99,0.01371672489125506
465,236.11,103,0.013688542776030922
466,236.59,116,0.013660477173882133
467,237.08,117,0.013631946303607612
468,237.56,151,0.013604113964341469
469,238.04,169,0.013576395981999041
470,238.53,154,0.013548217767941774
471,239.01,105,0.013520728744945133
472,239.49,122,0.013493351975491381
473,239.97,89,0.013466086774638807
474,240.46,104,0.01343836792249372
475,240.94,108,0.013411326115188311
476,241.42,113,0.013384393840867492
477,241.91,110,0.013357012768614434
478,242.39,107,0.013330299824172078
479,242.87,113,0.013303694426223511
480,243.36,98,0.013276645007817757
481,243.84,94,0.013250254973855862
482,244.32,111,0.01322397054755192
483,244.8,99,0.013197791097339016
484,245.29,111,0.013171173870561033
485,245.77,91,0.01314520465226919
486,246.25,86,0.013119338532471502
487,246.74,83,0.013093039242573459
488,247.22,93,0.01306737960557342
489,247.7,95,0.013041821233897246
490,248.19,77,0.01301583422765857
491,248.67,97,0.012990478678107204
492,249.15,96,0.012965222603831794
493,249.63,90,0.01294006542154836
494,250.12,103,0.01291448553405455
495,250.6,89,0.01288952643418442
496,251.08,92,0.012864664491710764
497,251.57,115,0.01283938421965424
498,252.05,95,0.012814716895205388
499,252.53,108,0.012790145033813639
500,253.02,97,0.012765159152112644
501,253.5,90,0.012740778524527608
502,253.98,87,0.012716491704757086
503,254.46,111,0.01269229815327935
504,254.95,102,0.012667696216586208
505,255.43,86,0.01264368951482179
506,255.91,89,0.012619774476416616
507,256.4,92,0.012595455212401532
508,256.88,88,0.012571723817568839
509,257.36,73,0.012548082517707995
510,257.85,95,0.012524041089710445
511,258.33,97,0.012500580300083476
512,258.81,100,0.012477208072554372
513,259.3,97,0.012453439753432773
514,259.78,92,0.012430244973549472
515,260.26,80,0.012407137257405441
516,260.74,101,0.012384116116430281
517,261.23,85,0.01236070416414095
518,261.71,103,0.012337856500753863
519,262.19,83,0.012315093958627253
520,262.68,89,0.012291944504219065
521,263.16,87,0.012269352534430412
522,263.64,92,0.012246844264310386
523,264.13,71,0.012223952923822194
524,264.61,92,0.012201612385188661
525,265.09,79,0.012179354156056784
526,265.57,103,0.01215717778300818
527,266.06,86,0.012134623366567872
528,266.54,87,0.01211261104059514
529,267.02,91,0.01209067922103347
530,267.51,93,0.01206837307102358
531,267.99,77,0.012046602601022438
532,268.47,72,0.012024911317218678
533,268.96,109,0.012002849362315394
534,269.44,82,0.01198131678927508
535,269.92,84,0.011959862110878652
536,270.4,88,0.011938484905758561
537,270.89,93,0.011916741818844216
538,271.37,77,0.011895519900523961
539,271.85,75,0.011874374200880358
540,272.34,97,0.011852866157726709
541,272.82,81,0.011831873236887551
542,273.3,83,0.011810955307023545
543,273.79,81,0.011789678521602275
544,274.27,79,0.011768910916175226
545,274.75,76,0.011748217100203925
546,275.23,71,0.011727596681592813
547,275.72,95,0.011706621973531343
548,276.2,91,0.011686148693258895
549,276.68,77,0.01166574764260482
550,277.17,84,0.011644995676711886
551,277.65,91,0.011624739429587517
552,278.13,82,0.011604554268939587
553,278.62,88,0.011584021519957381
554,279.1,65,0.011563978877087768
555,279.58,69,0.011544006201509091
556,280.06,87,0.011524103127902896
557,280.55,73,0.011503856822284076
558,281.03,77,0.011484093297948398
559,281.51,59,0.011464398287322744
560,282.0,60,0.01144436326463789
561,282.48,84,0.011424805626985455
562,282.96,81,0.011405315437313698
563,283.45,87,0.011385488411034875
564,283.93,66,0.011366133462985274
565,284.41,79,0.011346844919140755
566,284.89,72,0.011327622438715594
567,285.38,52,0.011308067280662235
568,285.86,83,0.011288977272703839
569,286.34,72,0.011269952312742056
570,286.83,75,0.011250597749954655
571,287.31,77,0.011231703231464793
